Position Data for Tapping Exercise, Total Taps:,4
Time (s),Finger 1,,,Finger 2,,,Finger 3,,,Finger 4,,,Finger 5
,x,y,z,x,y,z,x,y,z,x,y,z,x,y,z
0.00303398786005,-8.30663299561,153.083358765,58.7234153748,
0.0116002478628,-8.25364494324,150.65838623,58.6671409607,
0.0205336380536,-8.17504882812,148.241149902,58.5660400391,
0.0301063411579,-8.05910968781,145.86605835,58.5495185852,
0.0380492793987,-7.93033647537,143.576507568,58.5008811951,
0.0480384187416,-7.80042934418,141.395492554,58.3938751221,
0.055557924615,-7.64287900925,139.349411011,58.2863311768,
0.0646962014352,-7.4618730545,137.378662109,58.2000694275,
0.073227480794,-7.27573490143,135.512649536,58.0902366638,
0.0810284975647,-7.07998180389,133.777008057,57.9657096863,
0.0902110832006,-6.90138149261,132.116729736,57.7695121765,
0.0992477495786,-6.71839857101,130.580200195,57.6380805969,
0.107109066317,-6.5374341011,129.134719849,57.5503311157,
0.115908863762,-6.35811662674,127.789283752,57.5035209656,
0.124859244551,-6.18221902847,126.56791687,57.520324707,
0.13414344063,-6.04153108597,125.359741211,57.4856147766,
0.142131353984,-5.91949748993,124.211402893,57.444858551,
0.151261635229,-5.81106996536,123.17011261,57.4022636414,
0.159922176396,-5.69663953781,122.255157471,57.3424110413,
0.168953845539,-5.6074090004,121.443511963,57.2194366455,
0.17701871631,-5.51547765732,120.766021729,57.1726112366,
0.185232504681,-5.42239284515,120.174156189,57.0788764954,
0.193565227241,-5.34469366074,119.656837463,56.9237632751,
0.203739597423,-5.27473926544,119.236427307,56.7904167175,
0.211032895131,-5.2005815506,118.898399353,56.6553421021,
0.220119533858,-5.13250255585,118.638389587,56.4994926453,
0.228605838103,-5.06168222427,118.419487,56.347869873,
0.237770100544,-5.02433538437,118.338012695,56.1741790771,
0.246212762272,-5.00367498398,118.368469238,56.021232605,
0.255979691238,-5.02428722382,118.510559082,55.8707580566,
0.263242339239,-5.08150720596,118.780761719,55.6654853821,
0.272827702005,-5.17203998566,119.218681335,55.4913978577,
0.281281690798,-5.29257726669,119.843292236,55.3296318054,
0.289429515668,-5.43699502945,120.646720886,55.2007369995,
0.298149690505,-5.6140871048,121.656837463,54.9937973022,
0.307261981703,-5.82636785507,122.888458252,54.7093544006,
0.315816248343,-5.98191738129,124.232620239,54.5264129639,
0.324522430922,-6.13073921204,125.729095459,54.3246841431,
0.333285248829,-6.2872467041,127.369346619,54.1590957642,
0.342250954472,-6.44709300995,129.195343018,53.9491424561,
0.350376791509,-6.59477376938,131.116104126,53.8003501892,
0.359110625454,-6.72547960281,133.223770142,53.6924362183,
0.367982049932,-6.85517168045,135.440216064,53.5451622009,
0.376527654698,-6.98355340958,137.856628418,53.4518241882,
0.384774757967,-7.09632444382,140.371810913,53.3783531189,
0.393161117515,-7.22437095642,142.975067139,53.2182273865,
0.401718049346,-7.34150409698,145.628265381,53.1030464172,
0.411223456354,-7.49035263062,148.392730713,52.9258728027,
0.419307316618,-7.63739013672,151.187454224,52.8796691895,
0.427885569985,-7.80772447586,154.141311646,52.8817138672,
0.437208744495,-7.98359251022,157.051544189,52.8060722351,
0.446129475024,-8.12588024139,160.020111084,52.8600463867,
0.454053756921,-8.27901172638,162.979766846,52.8869743347,
0.464176822158,-8.4346818924,165.987884521,52.8648262024,
0.471368842574,-8.56963157654,169.008712769,52.9318695068,
0.480453149257,-8.70255279541,172.025741577,53.0115089417,
0.488857498851,-8.82061386108,174.966705322,53.0858955383,
0.49733580752,-8.92786693573,177.808624268,53.1134796143,
0.505897403437,-8.99493694305,180.665374756,53.2259063721,
0.515507752377,-9.06770992279,183.462554932,53.2425537109,
0.540699479621,-9.31217765808,190.603179932,53.3578834534,
0.549409659988,-9.4145860672,193.645874023,53.4894714355,
0.557691410753,-9.50017738342,196.499191284,53.6590919495,
0.566685100911,-9.56776618958,199.258804321,53.8642272949,
0.57613720408,-9.64996051788,201.849060059,54.0417098999,
0.584309348827,-9.76034164429,204.446182251,54.1450767517,
0.592480160978,-9.85193824768,206.907318115,54.3101272583,
0.600750584676,-10.0022096634,209.2449646,54.2032241821,
0.609608016897,-10.1110219955,211.550949097,54.4203872681,
0.618918864895,-10.2392187119,213.652053833,54.5701904297,
0.626834151769,-10.3725910187,215.65675354,54.6800498962,
0.635749551915,-10.5370759964,217.633285522,54.7048530579,
0.644482719562,-10.6810112,219.623977661,54.7529716492,
0.653614666551,-10.8364143372,221.562545776,54.7955360413,
0.661672874343,-10.9501867294,223.423706055,55.062789917,
0.67053163916,-11.0768213272,225.334823608,55.2491226196,
0.678939986541,-11.2193632126,227.33732605,55.561794281,
0.688335454382,-11.3915166855,229.072814941,55.6042404175,
0.696504933937,-11.5052347183,230.68309021,55.8563117981,
0.705124830927,-11.6466035843,232.472198486,56.0390014648,
0.713466881659,-11.7768764496,234.159637451,56.2610778809,
0.723131533885,-11.9014368057,235.825836182,56.3367919922,
0.730939546784,-11.9889001846,237.558868408,56.521446228,
0.739552114497,-12.0581045151,239.159851074,56.8023910522,
0.74862342837,-12.1061506271,240.666320801,57.1319999695,
0.757532498684,-12.1381139755,242.052597046,57.327419281,
0.765576381069,-12.1822185516,243.276672363,57.4864578247,
0.774247249855,-12.2082452774,244.431808472,57.7116470337,
0.784019176056,-12.2288961411,245.437713623,57.9517402649,
0.792435852162,-12.2799081802,246.443511963,58.0467033386,
0.800498724039,-12.3295879364,247.304489136,58.0805473328,
0.808866760393,-12.354757309,248.181488037,58.284526825,
0.817491321469,-12.4367589951,249.065887451,58.4309196472,
0.827223269791,-12.4955463409,249.750701904,58.5094299316,
0.835043609203,-12.5242681503,250.165466309,58.6176071167,
0.843533911236,-12.5199155807,250.619415283,58.8532867432,
0.852251087731,-12.5075654984,250.833267212,59.003326416,
0.861474983842,-12.4803695679,250.830123901,59.0772590637,
0.869504540821,-12.4937267303,251.226593018,59.0076141357,
0.878618164616,-12.4671449661,251.075439453,59.1975593567,
0.887034840721,-12.4863233566,250.701477051,59.1743278503,
0.896232751211,-12.522857666,250.402648926,59.2082481384,
0.904603119607,-12.5652837753,249.907577515,59.2206954956,
0.912887868713,-12.6306447983,249.421264648,59.2312660217,
0.921522757408,-12.6606712341,248.645690918,59.2958679199,
0.93113910303,-12.6702785492,247.777648926,59.3332633972,
0.938959775591,-12.6554756165,246.702362061,59.2570533752,
0.94751737372,-12.6370563507,245.65133667,59.2186164856,
0.956977139316,-12.6131181717,244.430114746,59.0431556702,
0.965678657809,-12.530049324,242.878219604,59.0051193237,
0.973554299954,-12.4811658859,241.456985474,58.8574028015,
0.983025392616,-12.3763933182,239.788650513,58.7541007996,
0.992025412605,-12.2509450912,237.786315918,58.5035438538,
1.00050971796,-12.1147928238,235.991027832,58.3954734802,
1.00859990805,-11.941403389,234.0831604,58.2503356934,
1.01694628972,-11.769285202,232.208297729,58.0423431396,
1.02570744188,-11.5790710449,230.087615967,57.7610969543,
1.03548936255,-11.4222698212,228.163467407,57.436126709,
1.04297555353,-11.2507343292,226.099807739,57.1401367188,
1.05145053071,-11.1314058304,224.042282104,56.6477508545,
1.06074172291,-10.9912452698,221.913360596,56.2674217224,
1.06995395881,-10.8293237686,219.81388855,55.9460105896,
1.07753376465,-10.6932830811,217.721603394,55.5373001099,
1.08794700266,-10.5232381821,215.690719604,55.1726646423,
1.09462564048,-10.3409481049,213.661636353,54.8885307312,
1.10456680637,-10.1523599625,211.720367432,54.5640106201,
1.11271563068,-9.97152233124,209.695404053,54.1901397705,
1.1214581265,-9.7985162735,207.546630859,53.8849563599,
1.12994576334,-9.650141716,205.400283813,53.6209640503,
1.13950780568,-9.50046825409,203.207077026,53.4071388245,
1.14690771107,-9.38081932068,201.087905884,53.184135437,
1.15590473271,-9.27913951874,198.826278687,52.9562988281,
1.16486510797,-9.19585323334,196.624053955,52.8450164795,
1.1739674047,-9.12950134277,194.452575684,52.7439002991,
1.18214388039,-9.07686138153,192.326477051,52.7039451599,
1.19087904693,-9.02708721161,190.007476807,52.5926017761,
1.20028584183,-8.9994354248,187.660079956,52.5153579712,
1.20883844273,-8.97069835663,185.32170105,52.5161132812,
1.21710986587,-8.93856239319,183.026672363,52.5636024475,
1.22560982923,-8.89702892303,180.669433594,52.5928039551,
1.2343363339,-8.86773586273,178.310882568,52.7021865845,
1.24400964799,-8.85916233063,175.938446045,52.7629814148,
1.25170738858,-8.84990978241,173.478118896,52.7765579224,
1.26015438124,-8.83073043823,171.046157837,52.8847122192,
1.26909943165,-8.86750411987,168.627548218,52.9448928833,
1.27815142288,-8.91232776642,166.234527588,53.0432624817,
1.28649447306,-8.991065979,163.82472229,53.0781326294,
1.29612714298,-9.04786777496,161.466323853,53.1354560852,
1.30383387859,-9.09236049652,159.210739136,53.229724884,
1.31313140062,-9.12263870239,156.988647461,53.2319335938,
1.32148711047,-9.09781265259,154.842056274,53.256111145,
1.33009601354,-9.02093982697,152.706420898,53.2908096313,
1.33821352185,-8.93438720703,150.705429077,53.3117408752,
1.34798444861,-8.83763122559,148.754989624,53.3386268616,
1.35550828542,-8.74713897705,146.866668701,53.3697624207,
1.36418881552,-8.69419574738,145.030593872,53.3670043945,
1.37331876362,-8.65213298798,143.265594482,53.4629936218,
1.38252033875,-8.66519737244,141.490814209,53.5677261353,
1.39206972142,-8.73331260681,139.709075928,53.5890541077,
1.39978711779,-8.84212112427,137.983032227,53.6815185547,
1.40825243365,-8.97863292694,136.318054199,53.7594680786,
1.41757494187,-9.1167755127,134.76890564,53.7948570251,
1.42596030197,-9.24021816254,133.284729004,53.8492393494,
1.43459985475,-9.36538887024,131.875274658,53.823425293,
1.44319276667,-9.47610473633,130.547943115,53.8306045532,
1.45029816835,-9.55844783783,129.256637573,53.8419952393,
1.4579725885,-9.66282463074,128.047668457,53.8059539795,
1.46658415677,-9.78108215332,126.937652588,53.7939758301,
1.47553420441,-9.91567707062,125.870918274,53.6990318298,
1.48470013259,-10.059668541,124.888580322,53.6683006287,
1.49266372607,-10.2139072418,124.040550232,53.6721611023,
1.50113537176,-10.384967804,123.305198669,53.6437034607,
1.50978625161,-10.5508480072,122.673439026,53.6232719421,
1.51948588448,-10.6982870102,122.152603149,53.6273040771,
1.52754842321,-10.86926651,121.748710632,53.5250892639,
1.53607437218,-11.0321598053,121.488502502,53.4069671631,
1.54433480141,-11.1655683517,121.347930908,53.3533630371,
1.55441089264,-11.2785396576,121.362533569,53.2390327454,
1.56174316878,-11.3707084656,121.514656067,53.190776825,
1.57061359381,-11.4566926956,121.79523468,53.077999115,
1.57956763924,-11.5246944427,122.216995239,52.9898910522,
1.58880319557,-11.6014547348,122.762466431,52.816783905,
1.59681209731,-11.6537570953,123.456436157,52.6947250366,
1.60580612061,-11.6748695374,124.337310791,52.5308074951,-11.4013414383,103.347351074,142.83744812,
1.61423212489,-11.6808261871,125.375709534,52.34375,
1.64089104029,-11.6705627441,127.582778931,51.9334411621,
1.64864041897,-11.6105518341,129.97618103,51.7292289734,
1.65738557998,-11.552731514,132.138793945,51.5166168213,
1.66595350573,-11.5112133026,134.184844971,51.346622467,
1.6752227101,-11.4879589081,136.216156006,51.210975647,
1.68331190075,-11.4676275253,138.25793457,51.0594673157,
1.69167227467,-11.4471111298,140.324859619,50.8957252502,
1.70051038425,-11.4140825272,142.466598511,50.8096885681,
1.70971695662,-11.382733345,144.688858032,50.6578559875,
1.71811097859,-11.34486866,146.974853516,50.4670448303,
1.72729889461,-11.2941226959,149.276077271,50.2914123535,
1.73565393815,-11.2125110626,151.633926392,50.2511863708,
1.74444307483,-11.1426305771,154.079421997,50.1778640747,
1.75251094394,-11.0832109451,156.536132812,50.055934906,
1.76139202974,-11.0330762863,159.133529663,50.0266227722,
1.76984002185,-11.0196361542,161.662536621,49.9562225342,
1.77917119194,-11.024561882,164.229537964,49.8736801147,
1.78750791229,-11.0098571777,166.778259277,49.876991272,
1.79586728677,-10.9816436768,169.300048828,49.8460502625,
1.80466142068,-10.9356584549,171.779754639,49.827129364,
1.81404322941,-10.9224996567,174.260482788,49.7631072998,
1.82196318037,-10.8909349442,176.758575439,49.8259658813,
1.83060040111,-10.8835906982,179.215118408,49.8298568726,
1.83937621183,-10.9264268875,181.74609375,49.825252533,
1.84845685387,-10.9718065262,184.209899902,49.8273658752,
1.85657236329,-11.0347537994,186.723190308,49.8867149353,
1.86539048393,-11.1035242081,189.071426392,49.9351387024,
1.87372753743,-11.14752388,191.339645386,49.9992904663,
1.88305504288,-11.2157306671,193.723937988,50.1802902222,
1.8911372374,-11.286277771,195.996810913,50.3013801575,
1.89972648468,-11.3927259445,198.083129883,50.4044380188,
1.90839535457,-11.5147428513,200.314575195,50.5791740417,
1.91776483679,-11.6225862503,202.427154541,50.7112236023,
1.92571810265,-11.7485361099,204.528503418,50.8426094055,
1.93527914554,-11.8567276001,206.611297607,51.0605545044,
1.94327238928,-11.9560966492,208.587341309,51.2385597229,
1.95237901694,-12.0563898087,210.537338257,51.476020813,
1.9602663193,-12.1423778534,212.471084595,51.7337379456,
1.96942558451,-12.2125368118,214.346725464,51.998916626,
1.97765369829,-12.3024921417,216.151199341,52.0731697083,
1.98693756122,-12.3355970383,217.83215332,52.3244552612,
1.99537455941,-12.3782491684,219.465179443,52.4446563721,
2.00377124658,-12.4325065613,221.101913452,52.5337104797,
2.01247576341,-12.4759683609,222.735092163,52.6866149902,
2.02205779469,-12.5279922485,224.293212891,52.8523826599,
2.02976719549,-12.5663356781,225.751449585,53.0570793152,
2.0383641052,-12.6311616898,227.135955811,53.2344703674,
2.04730016058,-12.6763706207,228.479721069,53.3044815063,
2.05643877055,-12.6729860306,229.644271851,53.5856590271,
2.06459658989,-12.7430286407,230.977905273,53.6525802612,
2.07323914101,-12.7665672302,232.123443604,53.7662467957,
2.08191800537,-12.7765226364,233.466629028,54.0706443787,
2.091185544,-12.7554416656,234.434692383,54.3181877136,
2.09927706669,-12.7493486404,235.467681885,54.4605712891,
2.10786598082,-12.7110996246,236.234893799,54.6083221436,
2.1163239674,-12.6245212555,236.766662598,54.8120155334,
2.12611921403,-12.5693187714,237.422988892,54.939037323,
2.13372933643,-12.5417947769,238.118759155,54.981803894,
2.14326339426,-12.5109491348,238.7081604,54.9842796326,
2.15152848757,-12.4524154663,239.079544067,55.2004890442,
2.1604478855,-12.4279270172,239.313568115,55.3914985657,
2.1683048713,-12.4575452805,239.447982788,55.4974784851,
2.1775001166,-12.482963562,239.393981934,55.8311004639,
2.18594544352,-12.5333108902,238.943817139,56.0901603699,
2.19502342037,-12.6724967957,238.598114014,56.119304657,
2.20338679264,-12.8178548813,238.091003418,56.2142715454,
2.21184377978,-12.9408197403,237.530090332,56.5074310303,
2.22057061759,-13.0576276779,236.645370483,56.7078399658,
2.23016097759,-13.1687841415,235.651763916,56.9969787598,
2.23779475357,-13.2547502518,234.193862915,57.2412834167,
2.24653824884,-13.3858585358,232.775024414,57.4432373047,
2.25537502582,-13.4661655426,231.245803833,57.6446838379,
2.26443601207,-13.5863008499,229.676925659,57.7011260986,
2.2726148198,-13.6719875336,227.904266357,57.727104187,
2.28163549503,-13.7441749573,226.252502441,57.8896331787,
2.28982363092,-13.8015241623,224.561019897,58.039024353,
2.29926040924,-13.8406352997,222.589859009,58.0390357971,
2.30738557998,-13.9162921906,220.662811279,57.9009284973,
2.31593351679,-13.9863882065,218.72102356,57.6893119812,
2.32454908284,-14.0010280609,216.784637451,57.7533950806,
2.33427070354,-14.0205459595,214.797332764,57.6403541565,
2.34197510711,-14.0231952667,212.637420654,57.5694961548,
2.35135191861,-14.0276594162,210.458068848,57.4402198792,
2.35960268651,-14.0065860748,208.334838867,57.3494033813,
2.36866367277,-14.0104284286,206.075057983,57.0139923096,
2.37654897623,-13.9595689774,203.966140747,56.8347740173,
2.38553133933,-13.9072942734,201.838165283,56.5365524292,
2.39401497838,-13.81640625,199.663284302,56.2868499756,
2.40339978545,-13.7415800095,197.562011719,56.0448074341,
2.41161590587,-13.6740198135,195.348419189,55.754108429,
2.4202374686,-13.6021471024,193.175796509,55.575214386,
2.42886402857,-13.5854063034,191.019973755,55.3589439392,
2.43843573223,-13.613732338,188.88269043,55.1064529419,
2.44620310095,-13.6629009247,186.754211426,54.9052734375,
2.45497191554,-13.7443313599,184.714447021,54.8111076355,
2.46376271796,-13.8181838989,182.67199707,54.7419586182,
2.47291465389,-13.8991203308,180.635498047,54.6907081604,
2.48111944724,-13.945356369,178.601226807,54.6073455811,
2.48982662927,-13.9318475723,176.582641602,54.590385437,
2.49825663133,-13.907374382,174.620132446,54.5626182556,
2.50761945057,-13.8509178162,172.742828369,54.5527038574,
2.51580858592,-13.7674074173,170.764266968,54.6250419617,
2.52434352991,-13.7620372772,168.843780518,54.5571479797,
2.53295676392,-13.7618188858,166.90977478,54.6278648376,
2.54237055496,-13.8030233383,165.060455322,54.7601966858,
2.55033947882,-13.8566131592,163.136459351,54.944229126,
2.559342164,-13.916053772,161.094848633,55.0140724182,
2.56813729736,-13.9449424744,159.17980957,55.2135124207,
2.5770057235,-13.9573965073,157.333023071,55.3856086731,
2.58514555279,-13.9413042068,155.523513794,55.600479126,
2.59387838729,-13.885184288,153.66444397,55.7986946106,
2.6023766849,-13.8165864944,151.756744385,55.8994598389,
2.61170985388,-13.7536144257,149.854949951,56.0539131165,
2.6199083174,-13.6842136383,147.898635864,56.2486724854,
2.62831899682,-13.6337909698,145.980926514,56.4370574951,
2.63707515175,-13.5890216827,144.079315186,56.6550636292,
2.64661387366,-13.5871744156,142.198760986,56.7888298035,
2.65442888268,-13.551990509,140.323043823,56.9874420166,
2.66327598729,-13.5218458176,138.431259155,57.1294555664,
2.67224802276,-13.5209751129,136.651168823,57.1762084961,
2.68131167421,-13.5441255569,134.976272583,57.2204093933,
2.68932190854,-13.5826673508,133.357040405,57.2230987549,
2.69822997941,-13.6279850006,131.784347534,57.2154350281,
2.70672261349,-13.6841230392,130.316238403,57.1999206543,
2.71593185104,-13.7436199188,128.964172363,57.1718025208,
2.74128515555,-13.800201416,125.354995728,57.0661735535,
2.75129628272,-13.8163547516,124.647605896,56.905418396,
2.75863855333,-13.849612236,123.985565186,56.7498016357,
2.76738471379,-13.8836774826,123.448059082,56.6602249146,
2.77599061852,-13.948384285,123.025474548,56.5676803589,
2.78516953952,-14.033323288,122.751579285,56.5079193115,
2.79327505447,-14.1525173187,122.615898132,56.3646736145,
2.8023936755,-14.2823495865,122.620872498,56.2661361694,
2.8107640439,-14.4315605164,122.710365295,56.1429710388,
2.82006423113,-14.5869092941,122.934883118,56.0519065857,
2.82836930232,-14.7579269409,123.288658142,55.9596176147,
2.83647814876,-14.9467773438,123.792976379,55.8222541809,
2.84559843553,-15.1531438828,124.471244812,55.7086486816,
2.85502688512,-15.3585615158,125.321205139,55.5665245056,
2.86336094028,-15.539276123,126.36920166,55.5027656555,
2.871477116,-15.673204422,127.532714844,55.4610671997,
2.88038618631,-15.802236557,128.836288452,55.3065414429,
2.88925561189,-15.9015550613,130.314361572,55.2233009338,
2.89739011081,-15.9680938721,131.912628174,55.1305046082,
2.90622888668,-16.0169296265,133.699020386,55.0600624084,
2.91465155947,-16.0584373474,135.555297852,54.9203491211,
2.92383647715,-16.0735473633,137.48425293,54.8692703247,
2.93214687873,-16.0800666809,139.488220215,54.7535705566,
2.94057688079,-16.077337265,141.574752808,54.738899231,
2.94914580599,-16.102180481,143.744522095,54.6642379761,
2.95930218612,-16.1090259552,145.975891113,54.6762275696,
