Position Data for Tapping Exercise, Total Taps:,18
Time (s),Finger 1,,,Finger 2,,,Finger 3,,,Finger 4,,,Finger 5
,x,y,z,x,y,z,x,y,z,x,y,z,x,y,z
0.00371494439743,-21.5392456055,137.299484253,7.47445440292,
0.0124611048553,-21.1901359558,121.967552185,11.1225547791,
0.0219058787471,-20.5109024048,107.418556213,16.1098194122,
0.0297465402477,-19.607793808,95.9061965942,21.5847110748,
0.0389061386033,-18.7135028839,89.0438690186,26.069934845,-19.5473861694,111.580749512,103.126876831,
0.0471549076178,-18.1886672974,86.990020752,28.2490062714,-19.4773769379,111.282203674,103.152687073,
0.0564797478728,-18.0904827118,88.9239730835,27.8170452118,-19.7119312286,111.132881165,102.992996216,
0.0646632196851,-18.1916885376,93.7234039307,25.5252475739,-19.8114490509,111.349121094,102.599311829,
0.0731805067862,-18.2228946686,100.220710754,22.0935764313,-19.7026329041,111.958076477,102.044570923,
0.0815328851369,-18.119562149,107.953437805,18.05742836,
0.0909600021322,-18.013961792,117.224517822,13.7472801208,
0.0986674040364,-18.1302947998,128.446762085,9.29138946533,
0.107502182126,-18.9238433838,142.003738403,4.97318840027,
0.116373939753,-20.6038036346,157.736526489,1.47044920921,
0.125129428383,-22.922082901,174.713897705,-0.405174523592,
0.133492467501,-25.137090683,190.802871704,-0.529931426048,
0.142067389378,-26.7367420197,204.486114502,0.572109818459,
0.150576014605,-27.523891449,214.750549316,2.00780940056,
0.160014125517,-27.6126308441,222.394470215,3.8054690361,
0.167983049379,-27.2628383636,227.89541626,5.21636247635,
0.176442035407,-26.6347541809,231.961593628,6.92060947418,
0.185236835618,-26.0210208893,235.016479492,7.96039819717,
0.194587994643,-25.5750751495,237.042221069,8.58412837982,
0.202421660015,-25.2482833862,238.07850647,8.69204521179,
0.210911628899,-25.0166110992,237.587097168,8.25952339172,
0.219963286981,-24.844619751,235.326965332,7.3289475441,
0.229132879807,-24.7894859314,231.336380005,5.61069726944,
0.237064824131,-24.7594814301,224.90171814,3.56230688095,
0.246103156254,-24.7595558167,215.769943237,1.90918791294,
0.254445540134,-24.837387085,203.898880005,1.31827068329,
0.263795033415,-24.9573249817,189.934143066,2.26361179352,
0.272090110139,-25.0552654266,174.671737671,4.9699549675,
0.280210283643,-25.0512428284,159.276153564,9.1780462265,
0.289181985968,-24.8344955444,145.507797241,14.4738883972,
0.298840308363,-24.3542518616,134.779891968,19.7747249603,
0.306512729623,-23.7117023468,128.062713623,23.7229671478,
0.315354170692,-23.1593418121,125.19190979,25.052646637,
0.32408700519,-22.8729953766,126.006484985,23.7233638763,
0.333374865908,-22.8003997803,129.31539917,20.3935871124,
0.341300480401,-22.8129444122,134.046051025,16.2751140594,
0.350389118021,-22.9029369354,139.669311523,11.9392299652,
0.378994956124,-23.3090457916,158.990356445,2.65176653862,
0.386759659655,-23.5688056946,170.061096191,-1.94851958752,
0.395507819007,-23.7577571869,180.961212158,-5.36637783051,
0.404084073479,-23.9961643219,191.699234009,-7.48676538467,
0.413191367443,-24.2284011841,201.691467285,-8.43413352966,
0.421075671462,-24.1724033356,210.532775879,-8.38162136078,
0.429360087418,-23.7493171692,217.89175415,-7.73523759842,
0.437149777123,-23.1899967194,223.675628662,-6.69568490982,
0.446428975967,-22.7280597687,228.414825439,-5.15053081512,
0.454750038312,-22.3245677948,231.906356812,-3.63742470741,
0.463047780228,-22.0329780579,234.668792725,-2.50962924957,
0.471737638507,-21.9414787292,236.145721436,-1.7581807375,
0.481418615033,-22.1164245605,236.15435791,-1.22635626793,
0.489102696508,-22.4810256958,234.59046936,-1.18411958218,
0.497660960935,-23.0524215698,231.447662354,-1.32007443905,
0.506753263194,-23.7346153259,226.166824341,-1.82513797283,
0.51579059587,-24.5140113831,219.114730835,-2.41147065163,
0.523780841268,-25.3585968018,209.936889648,-2.58153247833,
0.532777529767,-26.1746387482,198.612945557,-1.79696595669,
0.541068275554,-26.9768562317,185.60534668,0.0582039542496,
0.550493393656,-27.6252307892,171.343719482,3.28087639809,
0.558913401251,-28.0808238983,156.461883545,7.48799562454,
0.567594930805,-28.2900123596,142.49420166,12.7744102478,
0.576301113384,-28.2795143127,130.493041992,18.6185207367,
0.585883810958,-28.0636348724,121.136985779,24.5180740356,
0.593654178021,-27.7195091248,114.304489136,29.5667190552,
0.602294730249,-27.4069919586,111.358726501,33.2585525513,
0.611169153069,-27.1367111206,110.062431335,34.2311210632,
0.62042269944,-27.0304508209,111.643623352,32.1509246826,
0.628267691877,-27.0731010437,116.136802673,27.1701812744,
0.637364658222,-27.2729206085,123.707344055,20.383310318,
0.645574448805,-27.7299575806,134.265640259,12.7406206131,
0.655059533725,-28.4902076721,147.571884155,5.23048496246,
0.663371934196,-29.5998592377,163.024047852,-1.27466905117,
0.672331976306,-30.85496521,179.133804321,-5.82258844376,
0.680081021835,-31.9093112946,194.285049438,-8.41791534424,
0.689760998914,-32.3450737,207.209121704,-9.00660514832,
0.697362459439,-32.0877037048,217.189544678,-7.96693515778,
0.706012339839,-31.4578742981,225.168701172,-6.55875492096,
0.714842120693,-30.6899662018,231.461135864,-4.70167303085,
0.723937088145,-30.109500885,236.41734314,-2.77230262756,
0.732029943431,-29.8156261444,240.839233398,-0.980236172676,
0.740865720968,-29.6281986237,243.968917847,0.622818171978,
0.749241752897,-29.4826316833,245.791000366,1.62399959564,
0.758747493054,-29.5386009216,246.240737915,2.00917840004,
0.766929299121,-29.7468547821,244.954116821,2.03203940392,
0.775176069242,-30.0787200928,241.453552246,1.08522510529,
0.784273368736,-30.5380973816,235.618103027,-0.531650364399,
0.793764450337,-31.0474414825,226.733917236,-2.4821536541,
0.801471852242,-31.5873184204,214.466995239,-3.77883958817,
0.809965818914,-32.1057167053,198.980056763,-3.40599370003,
0.818848237309,-32.4736099243,181.175125122,-0.746997058392,
0.828131100791,-32.4703559875,162.158752441,4.15893936157,
0.836260602467,-31.963809967,144.333389282,10.974108696,
0.845086052384,-30.9002189636,130.091873169,18.6934509277,
0.853640985321,-29.600315094,120.581840515,25.4202232361,
0.862830567086,-28.4002933502,115.797042847,29.572719574,
0.871375172405,-27.6613464355,114.87171936,30.180437088,
0.87958063205,-27.5057506561,116.945297241,27.5914764404,
0.888525016158,-27.803024292,121.074584961,22.9355297089,
0.898226314772,-28.2239379883,126.639396667,17.2985267639,
0.905869752071,-28.5908489227,133.959991455,11.3074245453,
0.914397033641,-28.8640937805,143.098419189,4.97395801544,
0.923465016024,-28.9894351959,154.533355713,-1.19473767281,
0.932392409533,-28.9646911621,167.679641724,-6.42730093002,
0.940294703597,-28.8546333313,181.253875732,-10.0420980453,
0.949123485005,-28.5676364899,193.855300903,-11.7874593735,
0.957444214201,-27.9844970703,204.5625,-11.9274339676,
0.967039238288,-27.2401275635,213.246109009,-10.8491716385,
0.974933203627,-26.6494083405,220.231811523,-9.29649829865,
0.983548436532,-26.2886695862,225.322616577,-7.30335998535,
0.992238627959,-26.1790409088,229.899978638,-5.35143518448,
1.00159511737,-26.2183933258,233.583511353,-3.57235479355,
1.00964666218,-26.3557224274,236.129699707,-1.87478852272,
1.01823424372,-26.641544342,238.271972656,-0.506206214428,
1.02709134279,-27.1260299683,239.683654785,0.635266363621,
1.03626593285,-27.8406124115,240.503570557,0.80250442028,
1.0441055949,-28.7001647949,239.470703125,0.762629747391,
1.05311094528,-29.6706848145,236.867828369,0.173608377576,
1.06158492301,-30.7257843018,232.505050659,-1.05168497562,
1.07094774225,-31.709444046,225.630050659,-2.5150437355,
1.07909190248,-32.5572624207,216.097564697,-4.01203203201,
1.08760086086,-33.136505127,203.704498291,-4.52160930634,
1.09608350046,-33.4108657837,188.751800537,-3.53648662567,
1.10586075705,-33.3406143188,172.267364502,-0.774103105068,
1.11352418329,-32.9174537659,155.32611084,3.78335595131,
1.12228666804,-32.180141449,139.715209961,9.87560749054,
1.13149423985,-31.2342300415,127.374801636,16.9512386322,
1.14024006716,-30.3625850677,119.485321045,24.2943077087,
1.14850516048,-28.5914440155,119.357223511,33.0839614868,
1.1574775291,-28.1184005737,113.013092041,38.3538208008,
1.16562502082,-27.8822784424,112.63028717,41.9341697693,
1.17470666231,-27.2299175262,111.436737061,40.2858085632,
1.18349113491,-26.9622802734,112.536743164,35.6204528809,
1.19183718343,-27.0636348724,116.57875061,28.501285553,
1.20153981464,-27.4423370361,123.483543396,19.7938728333,
1.20955971029,-27.9327659607,132.981109619,10.824054718,
1.21800103942,-28.4993515015,145.247909546,2.07904005051,
1.22646902048,-29.1788520813,159.826049805,-5.72530412674,
1.23612467768,-30.1352386475,175.409896851,-11.1314163208,
1.24364651559,-31.3000469208,190.148620605,-13.6621074677,
1.25246796772,-32.2669258118,202.96321106,-13.4534015656,
1.26145532805,-32.5472488403,213.472702026,-11.7034549713,
1.27047400438,-31.8686847687,221.748077393,-9.54566860199,
1.2783589747,-30.4221630096,227.947570801,-7.44725751877,
1.28736699027,-28.7423477173,232.556411743,-5.84582328796,
1.29562975154,-27.2883319855,236.122497559,-4.31459665298,
1.30502288734,-26.3816261292,238.795135498,-2.78568053246,
1.31327498784,-26.0679244995,240.80406189,-1.4136967659,
1.32165701645,-26.2276268005,242.081329346,-0.618283450603,
1.33009767928,-26.7057571411,241.777877808,-0.545134663582,
1.33985528008,-27.4223365784,239.684280396,-0.838695943356,
1.34758433667,-28.2385883331,235.409805298,-2.23283600807,
1.35645209651,-28.930065155,228.475143433,-4.19686174393,
1.36541247177,-29.4112129211,218.340011597,-6.08816146851,
1.37430954872,-29.7148742676,205.079879761,-7.11333608627,
1.38247269844,-29.7935237885,189.138275146,-6.14609670639,
1.39119620477,-29.5227069855,171.149032593,-2.7972381115,
1.39989505807,-29.0389938354,152.842575073,2.59051346779,
1.40936848277,-28.4193191528,136.470474243,9.72236919403,
1.41760059434,-27.8680915833,123.785469055,17.7393016815,
1.4258836777,-27.8045558929,116.277900696,25.3138809204,
1.43478708448,-28.0736846924,111.414031982,30.7989311218,
1.44359021342,-28.3393936157,110.563110352,33.3400650024,
1.45294137244,-28.4022598267,111.11391449,32.2512588501,
1.47855719835,-29.2311191559,129.540527344,16.5256710052,
1.48995355903,-30.1304321289,141.88067627,6.31864452362,
1.49701565134,-31.2599430084,156.688491821,-2.16241574287,
1.505827109,-32.3185005188,173.440032959,-8.45602893829,
1.51310641445,-32.8882026672,189.37121582,-12.0457525253,
1.52301526489,-32.7830123901,202.458724976,-12.8233232498,
1.53047646969,-32.1234474182,212.585479736,-12.0700759888,
1.53935122566,-31.1356582642,220.129837036,-10.3880233765,
1.54815668663,-30.0366382599,225.958526611,-8.15555953979,
1.55711706189,-29.0076217651,230.759231567,-5.87629508972,
1.56522524203,-28.141954422,234.015380859,-3.43211841583,
1.57386079703,-27.5336418152,236.000564575,-1.64256632328,
1.58221384167,-27.2874565125,237.29864502,-0.349707871675,
1.59173623928,-27.5237560272,238.054626465,-0.102442607284,
1.59999633536,-28.0263004303,236.801330566,0.274365633726,
1.60847197884,-28.7950820923,234.411453247,-0.151560038328,
1.61748798998,-29.6259727478,230.436141968,-1.28100657463,
1.6268744628,-30.4258823395,224.605697632,-3.25348615646,
1.63480540767,-30.9053611755,215.766845703,-5.43244457245,
1.64338865828,-31.0913658142,203.913604736,-7.20238780975,
1.65225142088,-31.0287475586,188.928985596,-7.44687891006,
1.66130008062,-30.7436447144,171.776260376,-5.62198400497,
1.6695098712,-30.1103439331,153.778625488,-1.74618983269,
1.67848290613,-29.039686203,137.013763428,4.07349634171,
1.68677864915,-27.6704368591,123.369430542,11.0361938477,
1.69553280518,-26.2505645752,113.318588257,18.2683410645,
1.7043745794,-25.2293052673,108.189224243,24.9386882782,
1.71298748026,-24.5308551788,105.071411133,29.5642147064,
1.7222836697,-24.122636795,103.949577332,31.3318767548,
1.7305214448,-24.1342658997,104.122535706,30.1065349579,
1.73908204127,-24.532875061,106.674682617,26.6015701294,
1.74760166041,-25.0566425323,111.051902771,21.5205516815,
1.75684288027,-25.4458847046,117.267555237,15.3883972168,
1.76562202248,-25.5907344818,125.38394165,8.69781589508,
1.77384747107,-25.5497608185,135.651092529,1.77121782303,
1.78252300394,-25.519826889,148.043945312,-4.85912084579,
1.79051724712,-25.5795555115,161.841308594,-10.259935379,
1.80027651366,-25.5616989136,175.873321533,-13.8652839661,
1.80808485971,-25.1364021301,188.558029175,-15.5239515305,
1.81700892173,-24.1864719391,199.446762085,-15.6104736328,
1.82539361553,-22.843629837,208.260543823,-14.7120246887,
1.83475843367,-21.4205131531,215.523452759,-13.3489580154,
1.8427210277,-20.1993484497,221.474411011,-11.5259065628,
1.85109472758,-19.2627773285,226.958236694,-9.46815299988,
1.86008108846,-18.543422699,231.320968628,-7.25616598129,
1.86919038132,-18.0894260406,235.03086853,-5.17679691315,
1.87718262561,-17.9518032074,237.825012207,-3.74281930923,
1.88610302299,-18.150592804,238.811218262,-2.79618954659,
1.89435545665,-18.6558475494,238.691726685,-3.20205163956,
1.90379756535,-19.3464508057,236.138442993,-4.04597187042,
1.91209364152,-20.1739501953,231.111480713,-5.65252017975,
1.92044768561,-20.8484325409,223.053985596,-7.72261381149,
1.92941905479,-21.3197784424,211.723861694,-9.52575397491,
1.93900075292,-21.6211566925,197.08934021,-9.71373176575,
1.94655857092,-21.845161438,180.175735474,-7.90000867844,
1.95546597549,-21.9792728424,161.921401978,-3.73236083984,
1.96433007069,-21.9091587067,144.344894409,2.45066690445,
1.97321848577,-21.5030937195,129.517303467,9.96201610565,
1.98151422879,-20.6823215485,118.554168701,17.9107513428,
1.99025206053,-19.6603622437,112.36971283,24.8850288391,
1.99885596637,-18.6589546204,108.8724823,28.9625473022,
2.00768574722,-18.0933876038,107.456886292,28.8544902802,
2.0169862676,-18.1501960754,109.008483887,25.0429229736,
2.02491854507,-18.7411689758,113.269844055,18.8082046509,
2.03460218679,-19.6544742584,120.190605164,11.2358903885,
2.04282896797,-20.7053089142,129.828796387,3.08831787109,
2.05128328991,-21.8041210175,142.054885864,-4.68482685089,
2.05968930525,-23.0587215424,156.124603271,-11.3090991974,
2.06849210104,-24.5472412109,170.610473633,-15.8717241287,
2.07710700079,-26.0696239471,184.197769165,-18.1648750305,
2.08553133933,-27.1319980621,195.59223938,-18.2684707642,
2.09460465209,-27.4816150665,204.419631958,-17.3542156219,
2.10340744788,-27.0747261047,210.988479614,-16.0272750854,
2.11145999214,-25.9598484039,215.470397949,-14.6339969635,
2.12050965133,-24.425907135,218.833221436,-13.4012346268,
2.12897463404,-23.0121803284,221.38999939,-12.2330970764,
2.13814689205,-22.1428451538,223.428756714,-11.0300760269,
2.14660088085,-21.8451080322,225.071563721,-10.0986032486,
2.15489429183,-22.0143527985,225.959396362,-9.35359573364,
2.16335094581,-22.5965099335,225.93522644,-9.26710700989,
2.17297562016,-23.4380187988,224.532592773,-9.69227409363,
2.18080029051,-24.3448963165,221.277313232,-10.5095729828,
2.18977465802,-25.1891136169,215.5597229,-11.8510780334,
2.19836423845,-25.8089408875,206.69367981,-13.0725193024,
2.2074108993,-26.040802002,194.398544312,-13.7062902451,
2.21547543692,-25.9599456787,178.890899658,-12.2209405899,
2.22434119787,-25.5872383118,161.186981201,-8.00334835052,
2.2329484352,-25.0083522797,143.269836426,-1.23992264271,
2.24264740177,-24.2355480194,127.615234375,7.65163660049,
2.25074525429,-4.32070350647,148.546386719,28.7237987518,
2.25913361273,10.6109228134,162.037124634,43.2040328979,
2.26808865761,20.7794322968,164.376251221,51.2758026123,
2.2767242126,25.483997345,160.589385986,53.8753967285,
2.28520585276,27.2250843048,157.563720703,54.2203292847,
2.29394068615,27.386800766,155.787811279,53.6279411316,
2.30286374873,27.012594223,155.251068115,53.1090927124,
2.31139336234,-23.4803562164,125.108261108,9.83695697784,
2.31986534118,-24.2504749298,130.668869019,5.11228513718,
2.3295972895,-25.4458351135,138.025253296,0.182990759611,
2.33731068809,-27.1331596375,147.443634033,-4.31136512756,
2.34570804155,-29.2374763489,158.48677063,-7.96209812164,
2.35478401951,-31.566110611,170.93862915,-10.3875083923,
2.36393995323,-33.6521263123,184.242675781,-11.7183856964,
2.3718239241,-34.7941551208,196.609634399,-12.1706914902,
2.38046214428,-34.7201042175,206.097915649,-12.5296697617,
2.38910569485,-33.5689353943,212.521469116,-12.1025428772,
2.39829161197,-31.8137760162,217.160552979,-11.8149633408,
2.40634282364,-29.7338504791,220.274841309,-11.2738437653,
2.41479581298,-27.6803684235,222.640823364,-10.8741092682,
2.42362959163,-25.8254642487,224.209091187,-10.2933015823,
2.43322294997,-24.405330658,225.494888306,-9.67943000793,
2.44102130155,-23.5972633362,226.506591797,-9.24586963654,
2.45058700852,-23.5075321198,226.882507324,-9.14301872253,
2.45844432747,-23.955909729,226.305084229,-8.92018413544,
2.46765589707,-24.6733608246,224.260177612,-9.27266025543,
2.47580272249,-25.5326290131,220.523773193,-9.99945926666,
2.48472811711,-26.4078292847,214.740890503,-11.205034256,
2.49311947389,-26.961359024,205.809066772,-12.4353780746,
2.50235436392,-27.1376209259,193.874908447,-12.829126358,
2.51069474891,-27.0681972504,178.800750732,-11.5496797562,
2.51917972055,-26.9178733826,161.914703369,-7.82706737518,
2.52783159985,-6.10226631165,169.564468384,21.079164505,
2.53686027065,8.56021690369,173.509811401,41.0271186829,
2.54530159978,-26.1466960907,122.42742157,19.7613391876,
2.55409073646,-25.6631946564,119.627540588,23.0665493011,
2.58019562509,-25.5217437744,120.134307861,20.5973205566,
2.58921763291,-25.6532993317,122.532470703,16.633014679,
2.59816201702,-25.9500370026,126.864082336,11.7547159195,
2.60628019163,-26.4352035522,133.294631958,6.37006187439,
2.61497371454,-27.1215171814,141.938308716,0.934956848621,
2.62334508239,-28.0905208588,152.72706604,-3.90020108223,
2.63281184411,-29.368516922,164.942581177,-7.58710765839,
2.64101263967,-30.6652393341,178.042251587,-9.68233966827,
2.64935502355,-31.3916893005,190.31300354,-10.7211856842,
2.65857891966,-31.3303775787,200.398147583,-10.9550209045,
2.66735706243,-30.5798988342,207.757614136,-10.7912712097,
2.67518473112,-29.4015083313,212.70401001,-10.321896553,
2.68395954239,-28.055765152,216.056411743,-9.58849620819,
2.69285462044,-26.7621593475,218.347763062,-8.64368247986,
2.70197757241,-25.6935634613,220.084472656,-7.78224468231,
2.70992550789,-24.9721870422,221.146499634,-7.22528743744,
2.71882991411,-24.6523857117,221.407241821,-6.65222024918,
2.72703870525,-24.7521533966,221.133148193,-6.40288257599,
2.73652412332,-25.1863899231,219.852142334,-6.5935087204,
2.74509538056,-25.7947006226,217.423477173,-7.27073001862,
2.75325086785,-26.3984279633,213.01133728,-8.12715339661,
2.76197204214,-26.7505607605,205.97164917,-9.09200763702,
2.771756628,-26.7356796265,196.184783936,-9.8198928833,
2.77959495746,-26.3551044464,183.735839844,-9.56406211853,
2.78792668057,-25.7191944122,169.3565979,-7.72903347015,
2.79695668397,-24.9392185211,153.897781372,-4.08716869354,
2.80615892539,-24.0658321381,138.726699829,1.05932879448,
2.81404689405,-23.1202602386,125.275276184,7.47552967072,
2.82323947416,-22.0738964081,114.480743408,14.5524463654,
2.83140828741,-20.9349861145,106.835853577,21.6615543365,
2.84043262728,-19.8581676483,102.895446777,27.6657371521,
2.84878433933,-18.991071701,100.564064026,30.9218597412,
2.85822778063,-18.630645752,100.840858459,30.5825901031,
2.86657482859,-18.8804244995,103.794830322,26.7743968964,
2.87559083974,-19.7210063934,109.49836731,20.4138813019,
2.88403483406,-21.2230014801,118.075683594,12.7252664566,
2.89245350906,-23.594127655,129.349716187,4.88148403168,
2.90201255305,-26.7689857483,142.638702393,-2.1285982132,
