Position Data for Tapping Exercise, Total Taps:,23
Time (s),Finger 1,,,Finger 2,,,Finger 3,,,Finger 4,,,Finger 5
,x,y,z,x,y,z,x,y,z,x,y,z,x,y,z
0.00235940847331,11.033747673,139.133026123,31.0227909088,
0.0204505165176,7.00456809998,117.65537262,33.264629364,
0.038632089726,4.58491849899,102.738510132,36.8697280884,
0.0550582537914,3.85315728188,100.243263245,37.2011489868,
0.0732017161434,3.80471253395,109.732475281,33.1949386597,
0.0909925568343,4.50909471512,127.555229187,27.6047515869,
0.110412540397,5.54226112366,150.007171631,23.5488834381,
0.127700240791,6.32274198532,171.797653198,22.2954883575,
0.144830108346,7.16507673264,187.323364258,22.9352645874,
0.164033745431,8.1137676239,196.069000244,24.5472183228,
0.181543181718,8.70773220062,200.157119751,26.2021198273,
0.201103675003,8.42508983612,199.623550415,26.9530181885,
0.21647505375,7.49435853958,193.319152832,26.5041484833,
0.235220975599,5.41914081573,180.380187988,25.6827049255,
0.255254967404,2.77727818489,161.780914307,26.1935901642,
0.272091496852,0.285236656666,140.647460938,29.1495723724,
0.290504429906,-1.48603069782,124.436065674,33.2938461304,
0.309319259264,-2.42288780212,120.848045349,34.6401252747,
0.326281670025,-3.00755500793,130.281936646,32.2788162231,
0.344388561354,-2.77026128769,147.824081421,28.5943851471,
0.361258582161,-1.72917997837,168.9894104,26.1557884216,
0.382631073437,-0.559804975986,187.846939087,25.8458614349,
0.399481461378,0.456512242556,198.832748413,26.556098938,
0.418138842854,1.41722071171,203.164352417,27.6206359863,
0.435289498149,2.08904361725,202.555984497,28.3005237579,
0.45399576931,2.45643210411,198.319839478,28.2971782684,
0.471341598385,2.52035832405,191.577362061,27.6279163361,
0.48909201847,1.99071550369,182.887405396,26.8501777649,
0.505880813109,0.785840690136,171.445083618,26.5251731873,
0.526697424822,-0.666350901127,156.138092041,27.488275528,
0.542621988424,-1.81616055965,138.52281189,30.6786689758,
0.562061604852,-2.48412489891,122.362724304,36.0329704285,
0.58032209448,-2.78371667862,111.239387512,41.5029754639,
0.597269491874,-2.83506584167,109.013183594,43.8577461243,
0.615320564272,-2.8429787159,115.326171875,41.5703353882,
0.633545637751,-2.43794608116,129.60484314,35.8716773987,
0.650456464121,-2.2149605751,150.493637085,30.1569309235,
0.67026525541,-2.49500226974,173.873748779,26.7027931213,
0.688974606236,-1.94277465343,193.030517578,25.6791400909,
0.706449781248,-0.185915708542,204.272018433,25.9344501495,
0.72392688105,1.98498928547,209.915649414,26.8986549377,
0.742779821264,3.67198872566,213.303207397,27.8293819427,
0.759447354086,4.51676225662,213.153274536,28.2318649292,
0.777710538422,4.40228176117,208.375717163,27.575881958,
0.795147602577,3.64517712593,197.616943359,26.2681980133,
0.815031075746,2.33104014397,180.398162842,25.7681884766,
0.83250163126,0.842873752117,158.446929932,27.4023132324,
0.852193010315,-0.346477508545,136.535247803,31.359910965,
0.86888903004,-0.87940120697,120.581626892,36.7151260376,
0.887081382077,-0.838335514069,112.872093201,40.8216056824,
0.904813709129,-0.443128883839,114.166130066,40.5970649719,
0.921722995667,0.240421637893,123.915138245,35.985244751,
0.942273216345,1.61412549019,140.542434692,29.7258605957,
0.95853538824,3.19564318657,161.636123657,24.6325721741,
0.976982197611,4.78680801392,183.592056274,22.2594432831,
0.994917782564,7.04233169556,201.440246582,22.5500984192,
1.01450560788,9.62440109253,211.335235596,24.1061344147,
1.03103224602,11.394744873,215.043243408,25.8099536896,
1.0491275886,11.8078756332,214.197769165,26.635219574,
1.06653154636,10.9793395996,207.20324707,25.6346511841,
1.08686696039,9.0795879364,193.270614624,23.4075374603,
1.10408575328,6.6594877243,171.097259521,22.1521606445,
1.12167333607,4.18568134308,144.317489624,24.0204544067,
1.13991303795,2.46721816063,121.873161316,29.026184082,
1.15781320676,1.75971794128,110.289810181,33.8541030884,
1.17571530035,1.68050849438,112.14805603,33.6512107849,
1.19519841705,2.01161575317,125.656166077,28.8972835541,
1.21101134279,3.58248066902,148.368972778,23.0471534729,
1.23226064746,5.39310741425,175.489242554,20.0762901306,
1.24962225982,6.37564563751,196.735595703,20.4187984467,
1.270517403,6.64240598679,206.75,21.85430336,
1.28420959431,6.44000101089,206.464157104,22.5985126495,
1.30307023369,5.84967374802,198.231124878,21.7909069061,
1.32047881094,4.65630340576,183.288803101,20.3476257324,
1.33867424264,2.84746050835,162.584091187,20.3829803467,
1.35830710806,1.00821900368,140.92477417,22.7567214966,
1.37454271784,-0.281125634909,126.107398987,25.8509521484,
1.39258840083,-0.894895851612,125.102050781,25.6920013428,
1.41106100239,-1.28798151016,137.729614258,22.000869751,
1.42874636455,-1.10650324821,159.575546265,18.6335048676,
1.44778446963,-0.0979743897915,184.031768799,18.1014595032,
1.46455132166,1.77373671532,200.904052734,19.4205951691,
1.48296117505,3.04517149925,206.731414795,20.952665329,33.3334007263,147.136367798,66.6714553833,
1.50244082712,3.55223965645,202.772109985,21.1299095154,33.7953720093,148.342712402,67.8776245117,
1.52015814081,3.23761844635,190.341384888,20.1571540833,33.9661941528,148.645996094,68.6935195923,
1.5374881866,2.24853587151,170.838104248,20.4845275879,33.8671684265,148.257064819,69.0555648804,
1.55694820581,1.27107667923,149.216049194,23.0790119171,33.877658844,147.169128418,69.4379272461,
1.57376394751,0.843842566013,132.825134277,26.5068454742,33.6160697937,145.666656494,68.9282913208,
1.59187969288,0.72403550148,131.080307007,26.4673995972,33.5272598267,144.228485107,68.6290817261,
1.60925862836,1.1215031147,143.19883728,23.0170097351,33.6793746948,143.42250061,68.8464431763,
1.62614866699,2.94887471199,162.69694519,19.2559280396,33.7873268127,143.23588562,68.5914764404,
1.64630392061,5.62195205688,183.675460815,17.5473823547,34.2055244446,143.349212646,68.4523239136,
1.66493012047,8.58104324341,198.885391235,17.7670612335,34.6960639954,143.858688354,68.3101806641,
1.68209694401,10.2920608521,203.831298828,18.0395774841,34.9860916138,144.602539062,67.7716522217,
1.70233919817,10.4279251099,198.972183228,17.5713539124,35.3871154785,145.251296997,67.7837753296,
1.71865795891,9.58223438263,186.713424683,16.7163028717,35.4811019897,145.577041626,67.8315887451,
1.73879588942,7.79841852188,168.279037476,16.9900569916,35.6074256897,145.238372803,68.1326370239,
1.75466771375,5.69422197342,147.377609253,19.5280857086,35.422252655,144.205947876,68.2417526245,
1.77448266437,4.0793671608,131.821090698,22.8805980682,35.0710220337,142.661849976,67.972694397,
1.79041993159,3.10915660858,131.03288269,22.9386997223,35.0100212097,141.259429932,68.1878585815,
1.80812454166,2.56135439873,145.288146973,20.0072517395,34.912399292,140.410873413,67.6331787109,
1.82671609529,2.73893213272,168.033477783,17.6845703125,35.1031188965,140.499420166,67.5390090942,
1.84515212584,3.60427761078,191.387939453,18.0579776764,35.6182479858,141.007904053,67.2800598145,
1.86288791751,5.09597873688,205.655151367,19.6391811371,35.7840576172,141.290557861,64.7983093262,
1.8812977709,6.10633277893,208.839141846,20.6814861298,36.2063751221,142.795913696,64.4049987793,
1.89902393862,6.27981710434,203.799911499,20.3281879425,36.4472084045,143.782226562,63.8122749329,
1.91838155897,6.04177236557,191.83380127,18.7701835632,36.421043396,143.818115234,62.6832122803,
1.93522617253,5.19486665726,174.012390137,17.8607616425,36.4196586609,143.723220825,63.3563957214,
1.95403984702,4.01034498215,153.514694214,18.7500648499,36.3223419189,142.697891235,64.0366592407,
1.97238926198,3.1472299099,136.037567139,21.1654720306,35.7292823792,140.817504883,62.9651069641,
1.98933280979,2.93972611427,129.682891846,22.2381458282,35.8161582947,139.259521484,64.1724090576,
2.00707707055,3.45480918884,137.394195557,20.1253967285,35.9745445251,138.508056641,64.8530883789,
2.02408567628,5.55789899826,154.883605957,17.0335044861,36.2092323303,138.569564819,65.2188262939,
2.04288279757,8.56276035309,176.171157837,15.4967470169,36.5668754578,139.339202881,65.376991272,
2.06230162626,11.1318683624,194.611419678,16.0159778595,36.8058319092,140.638473511,64.9677276611,
2.08000970095,12.4155158997,203.224121094,17.0216140747,37.1180496216,142.468170166,65.2704315186,
2.0983140758,12.3720817566,200.964416504,17.1778240204,37.2578163147,143.994369507,64.9414749146,
2.116780903,11.151102066,189.914398193,16.5497608185,37.2272796631,145.10218811,65.2665328979,
2.13443623842,8.74569988251,171.026473999,16.9535446167,37.150390625,145.237335205,65.8910140991,
2.15235103563,6.14233541489,148.108932495,19.968832016,36.8908462524,144.480117798,66.3463439941,
2.16970417891,4.34290742874,127.530006409,25.5132751465,35.9192085266,142.998809814,65.6054077148,
2.1905642909,3.29729747772,118.963668823,28.8373680115,34.8504714966,141.340591431,65.0008621216,
2.20633679603,2.50748157501,125.196357727,27.103263855,34.7883453369,140.000427246,65.3928985596,
2.22403062727,2.86089706421,138.803497314,22.9800605774,34.9189758301,139.459747314,65.5374069214,
2.24267222546,4.87084388733,158.47543335,18.5035114288,35.3248023987,139.841369629,65.4327163696,
2.26103357412,7.24102973938,180.96862793,16.115896225,35.5330123901,139.994674683,63.0082244873,
2.27863309062,9.00581550598,197.006942749,15.8962526321,35.9804420471,141.388763428,62.2841186523,
2.29597545507,9.47868442535,200.01184082,15.8078956604,36.5424613953,143.212677002,62.6640625,
2.31510672002,9.11289310455,191.572891235,15.2659044266,36.6481590271,144.349868774,62.1185913086,
2.33513609233,7.87139844894,175.843978882,15.2674016953,36.7876434326,145.035873413,62.9828491211,
2.35131549822,6.16766834259,156.742477417,17.2326660156,36.6113548279,144.923934937,63.2576026917,
2.36984122401,4.55411911011,138.953186035,21.2567939758,36.2128868103,144.101486206,62.9516334534,
2.3877333087,3.37324619293,128.365280151,25.1795692444,35.6635932922,143.043487549,62.5765457153,
2.40567235827,2.55845022202,129.124389648,25.5174446106,35.4122848511,142.233886719,62.9779510498,
2.42333000345,2.30790996552,140.427001953,22.255607605,35.185131073,141.684158325,61.6618843079,
2.44089102412,2.98534679413,160.703933716,18.1435909271,35.3256416321,142.33493042,61.5519599915,
2.45861796176,3.96611618996,185.500473022,16.5977230072,35.8185920715,143.590835571,62.033454895,
2.47882749448,4.84119033813,204.319610596,17.4068546295,36.0304870605,144.757217407,60.4877052307,
2.49590808739,5.11096477509,210.059890747,18.3088951111,36.308391571,146.51133728,59.8974342346,
2.51520064981,4.65496110916,204.895401001,17.8706569672,36.3852157593,147.653259277,58.9037666321,
2.53192323165,3.87133789062,191.64112854,16.9595985413,36.4501075745,148.8543396,59.8827896118,
2.54989269292,2.53513598442,172.170791626,17.2271785736,36.1858406067,148.669113159,59.9881973267,
2.5679291369,1.12485682964,150.595535278,19.9766998291,35.6645317078,147.518310547,59.9758682251,
2.58553750743,0.156248345971,132.660232544,24.6077613831,34.6899414062,145.933792114,59.679901123,
2.60636297319,-0.343306213617,125.192710876,27.6650733948,33.894241333,144.207717896,59.9809455872,
2.62259588826,-0.690598130226,132.795639038,25.5576667786,33.7368392944,143.184799194,59.9495429993,
2.6401692276,-0.00679701706395,151.404251099,20.943315506,34.1555747986,143.659957886,60.8778877258,
2.65799971898,2.09375071526,176.207229614,17.4173049927,34.5391731262,144.897659302,60.377910614,
2.6763448994,4.8925151825,198.47026062,16.5641422272,34.8930168152,146.174163818,58.8594436646,
2.69435516623,7.83968257904,208.37121582,16.6700000763,35.6236953735,148.484985352,59.7968864441,
2.71248361522,9.03286838531,206.800415039,16.431230545,36.1824913025,150.53843689,60.6074066162,
2.730172442,8.71112823486,196.522476196,15.6382513046,36.3145713806,151.808059692,60.8267326355,
2.75127700241,7.37404680252,178.777572632,15.6435823441,36.3097724915,152.365478516,61.5589675903,
2.76658871264,5.89487314224,156.164642334,18.4399776459,35.631477356,152.022033691,61.5470352173,
2.78482456495,4.84288597107,136.034637451,23.6848773956,34.658290863,150.625869751,61.1452064514,
2.80361475699,4.28445577621,128.265731812,26.4929275513,34.5975494385,148.7003479,61.7149734497,
2.8212389108,4.06203746796,132.698486328,25.0820217133,34.6686134338,147.333953857,62.1075515747,
2.83931346564,4.93670892715,143.79624939,21.2978649139,34.7232666016,146.926574707,61.8800544739,
2.85719169183,7.22796297073,160.359222412,16.74335289,35.321182251,147.250137329,62.0809822083,
2.87402398674,9.60511016846,180.216888428,13.7275247574,36.0959625244,147.956878662,62.1586837769,
2.89457882692,11.1240959167,196.450134277,13.0654973984,36.7142066956,148.729263306,61.7621994019,
2.91103386284,12.2503070831,202.250015259,12.9846897125,37.1769523621,149.232849121,60.9389839172,
2.92895982384,11.8261671066,197.439880371,12.3937082291,37.5169181824,149.74307251,60.8891677856,
2.94794441974,10.5489215851,183.705978394,11.9251890182,37.6318397522,149.665496826,61.3034248352,
2.96566442814,8.7889213562,161.128921509,13.8445653915,37.6353797913,148.502380371,61.8073387146,
2.98354611895,7.17568206787,135.252410889,20.2789669037,37.1323471069,146.409484863,61.508392334,
3.000607079,6.089427948,117.366012573,28.0742340088,36.0782623291,143.790847778,61.1026954651,
3.01928409334,4.96138763428,116.294616699,29.589925766,35.4679527283,141.856719971,60.4168434143,
3.03872178497,3.8198826313,127.532836914,25.866853714,35.330368042,140.796798706,60.0671043396,
3.0566512106,3.54605340958,144.321640015,20.3335266113,35.5056114197,140.908462524,59.7211151123,
3.07442164851,4.26495933533,165.715240479,15.4242019653,35.9834861755,141.762298584,60.1506729126,
3.09212741345,5.14548969269,186.605651855,13.188741684,36.0875091553,141.919937134,58.2864074707,
3.10990670539,5.86926412582,198.50038147,12.9824295044,36.2644462585,142.83505249,57.8741493225,
3.1282207042,5.7140827179,198.82019043,12.9283094406,36.2672386169,143.528427124,57.33984375,
3.14512075175,5.11874246597,189.484069824,12.3941287994,36.2262802124,144.285247803,58.3026771545,
3.1630682704,4.14660310745,172.508346558,12.7753763199,36.1840248108,144.246063232,59.6015586853,
3.18331976356,2.84524106979,150.704650879,15.9343147278,35.9685745239,143.454925537,60.5080795288,
3.20092389955,1.98693716526,130.524475098,21.927652359,35.4387207031,142.050811768,60.6047515869,
3.21920979641,1.59345316887,120.428276062,26.916185379,34.5087165833,140.814254761,60.1148796082,
3.23713421758,1.07833516598,125.082229614,25.8702526093,34.3867797852,139.852676392,60.6331253052,
3.25541357016,0.796768128872,140.905059814,20.9164924622,34.3396987915,139.780578613,59.9852218628,
3.27251841544,1.77693605423,164.252380371,16.0244426727,34.4158058167,140.236373901,58.1152992249,
3.29007828124,3.80061578751,190.323684692,14.2327613831,34.737159729,141.24546814,56.3473243713,
3.31026779613,6.16536426544,209.256622314,15.4537115097,35.6610794067,143.751190186,57.2327728271,
3.3264814633,7.97144412994,216.48890686,17.3114852905,36.1382522583,145.764129639,56.0864868164,
3.34470384207,8.62449645996,214.666992188,17.8106403351,36.6420288086,148.227722168,56.5983772278,
3.36316643473,8.66432094574,205.348861694,16.3580131531,37.0138511658,149.835952759,57.7753105164,
3.38211061002,7.98895788193,188.314208984,14.5100669861,36.9214706421,150.198242188,57.1460952759,
3.39949878449,6.69538974762,164.848403931,15.3598680496,36.8217697144,149.955383301,57.7416191101,
3.41670718351,5.51814126968,141.7003479,19.8097667694,36.1929550171,149.206832886,57.6379470825,
3.43443373619,4.84020662308,127.569023132,25.2225036621,35.4055519104,148.012832642,57.788974762,
3.45469177364,4.54315567017,127.001739502,26.5839538574,34.6020851135,147.304168701,57.5571670532,
3.47232054695,4.65231609344,139.299819946,22.8287220001,34.7756881714,147.248214722,57.0604171753,
3.4892775683,5.79240369797,161.424087524,17.5836029053,35.5674057007,148.075942993,56.7790718079,
3.50838650568,7.70763015747,188.666854858,14.9853105545,36.2543983459,148.931900024,54.914516449,
3.52598794696,9.66370105743,210.860183716,15.878235817,37.1198120117,150.730514526,54.1627578735,
3.54374491133,11.842663765,220.805801392,17.7973594666,37.8320274353,152.561416626,53.0533256531,
3.56115810808,12.4411497116,219.832595825,18.5555686951,38.5449562073,154.783294678,54.0844726562,
3.57965265227,11.8929662704,211.295501709,17.3157348633,38.8207778931,155.725616455,54.9980583191,
3.59890517903,10.6215906143,194.414535522,15.2633552551,38.8160057068,155.579986572,56.2263832092,
3.61661402364,8.81097793579,169.632446289,15.624373436,38.5299911499,154.018707275,55.8779182434,
3.63469627765,7.2134976387,144.83416748,19.4423294067,37.5624580383,152.289108276,56.1627731323,
3.65247287489,6.19752407074,130.946533203,23.753786087,36.7657661438,150.210617065,56.748374939,
3.67137816941,5.37293577194,132.27355957,23.9453449249,36.5903892517,148.397705078,56.469669342,
3.6883844654,4.82460212708,143.597488403,20.9043979645,37.0321426392,147.5078125,56.5206108093,
3.70586926436,4.98509502411,161.527587891,16.9058246613,37.4819145203,147.308059692,55.2242164612,
3.7263536572,5.70141458511,183.544891357,14.4859867096,38.1536178589,148.06678772,54.917804718,
3.74258156782,6.77110767365,202.415588379,14.6569194794,38.805103302,149.077774048,54.7486228943,
3.76024537232,7.74587345123,209.880447388,15.2768230438,39.3438529968,150.378036499,54.9827804565,
3.77990672464,7.84715557098,207.268051147,15.3324661255,39.5847053528,151.243041992,55.3585090637,
3.79660620899,7.03516244888,198.942672729,14.4898662567,39.5123939514,151.217056274,55.3194885254,
3.81487670753,5.83474206924,185.035522461,13.7215156555,39.3315963745,150.807388306,56.0633087158,
3.83293586405,4.87147426605,165.87310791,14.6778926849,39.0504989624,149.686050415,56.3477897644,
3.85020893603,4.37138128281,144.960174561,18.6588993073,38.6639251709,148.228546143,56.187297821,
3.87063750994,4.35450220108,129.572662354,24.4342899323,37.9760475159,146.901107788,56.6967163086,
3.88836906707,4.40805721283,126.927253723,27.1000099182,37.7673606873,146.036392212,57.101146698,
3.90561211232,4.32475233078,135.863372803,25.362329483,37.8300285339,146.415527344,56.5738487244,
3.9247256692,4.76877403259,152.480682373,21.2184429169,38.1565055847,147.619613647,55.818649292,
3.94204378129,5.80475664139,174.295196533,17.3122673035,38.5913200378,149.358215332,55.2940635681,
3.95973183816,6.90904426575,194.915222168,15.5968446732,39.0917358398,151.187591553,55.4570350647,
3.97690559094,8.07609558105,204.532043457,14.958070755,39.3549613953,152.390365601,55.180267334,
3.99839626437,8.36263751984,201.542633057,14.0939149857,39.349697113,152.954864502,54.7126922607,
4.01473504293,7.76055288315,189.555236816,13.2650260925,39.1547393799,152.861358643,55.3740653992,
4.03126976519,6.79635190964,170.175338745,14.1398820877,38.7268753052,151.831985474,56.1313552856,
4.05092226348,5.94680547714,147.880355835,18.2845916748,38.0590286255,150.181045532,56.8787574768,
4.06884976431,5.58662748337,130.550811768,24.0802536011,36.9295578003,148.431549072,57.3374252319,
4.08717993136,5.54713535309,125.794448853,27.0315761566,35.8593177795,147.226593018,57.5717201233,
4.10509087899,5.88261699677,133.752838135,24.9146614075,35.9240989685,146.805786133,58.1029586792,
4.12241361058,7.52000188828,150.101806641,20.0404434204,36.5395431519,147.45022583,57.3096733093,
4.13959121295,10.2285337448,171.396575928,15.571185112,37.4775085449,149.015029907,58.1485671997,
4.15868860158,12.4215564728,191.578430176,13.4393577576,38.3409194946,150.464584351,58.7549209595,
4.17662996091,14.1024093628,202.934494019,13.0851736069,38.6512031555,151.061019897,56.56508255,
4.19450010298,14.6718883514,202.074279785,12.7033720016,38.9587593079,152.16368103,56.0702018738,
