Position Data for Tapping Exercise, Total Taps:,17
Time (s),Finger 1,,,Finger 2,,,Finger 3,,,Finger 4,,,Finger 5
,x,y,z,x,y,z,x,y,z,x,y,z,x,y,z
0.00571750298168,6.04546260834,140.232208252,54.3816947937,
0.0141878160751,6.53626155853,130.503967285,59.9433288574,
0.0231698460185,7.21293878555,125.912361145,64.7234344482,
0.0323117874776,7.82191085815,124.917831421,67.5879974365,
0.0395967564614,8.15141487122,125.766830444,67.7310256958,
0.0489485817847,8.19377994537,129.06930542,65.6122589111,
0.0571610375592,8.0363779068,134.388275146,61.9043235779,
0.0661540614193,7.74938726425,141.408126831,57.4435958862,
0.0746840081821,7.21467447281,149.854217529,52.6966400146,
0.0829507672421,6.33478069305,159.971618652,47.9107704163,
0.0911935395748,5.15612077713,172.030014038,43.4348716736,
0.100752250421,3.83051323891,185.890136719,39.7964477539,
0.108486637394,2.41378235817,200.83026123,37.5835876465,
0.116890986987,0.961743533611,215.492141724,37.216709137,
0.126042589767,-0.359231621027,228.537475586,38.6692276001,
0.135132226834,-1.25602817535,238.798400879,41.3041534424,
0.143794100598,-1.48158955574,246.190994263,43.991394043,
0.152228100451,-1.11549735069,251.355026245,46.2396583557,
0.160538835178,-0.349925041199,254.881790161,47.8898162842,
0.169932304125,0.477521300316,256.990325928,48.9846191406,
0.177946203101,1.2537446022,258.593811035,49.7973365784,
0.186200302499,1.81968665123,259.168914795,50.2810134888,
0.195020088884,2.07451152802,258.772827148,50.1313667297,
0.204553480408,2.02603816986,257.30178833,49.6949768066,
0.212686313573,1.5426081419,255.059860229,48.3767814636,
0.221258570258,0.823532164097,251.345336914,46.7899513245,
0.230097679284,-0.0169965811074,245.733322144,44.644443512,
0.239829627606,-0.851089060307,237.855667114,42.1410102844,
0.247056295516,-1.59318578243,227.140777588,39.8792572021,
0.256167920417,-2.2510035038,213.54699707,38.5986404419,
0.264613247336,-2.73853182793,197.806259155,38.9627342224,
0.273656243545,-2.88241124153,180.530654907,41.4652824402,
0.282283802962,-2.64227867126,163.624359131,45.8376197815,
0.290705476303,-1.96871483326,149.392425537,51.635597229,
0.299444640632,-1.082924366,138.696380615,57.6730918884,
0.309035333782,0.237033426762,135.243164062,66.0129928589,
0.316867666558,1.6272238493,131.635360718,71.8119125366,
0.32565846898,2.52921152115,130.1300354,75.0327835083,
0.335906798238,2.91415524483,131.338516235,74.2235565186,
0.34367450011,2.84183478355,133.93208313,70.7921447754,
0.351952919385,2.29636383057,139.23336792,65.5738296509,
0.360559157266,1.31437802315,147.056533813,58.976360321,
0.368879553314,0.036863528192,157.106552124,51.9816131592,
0.378037485924,-1.40568566322,169.273773193,45.3513641357,
0.386422179727,-2.83480095863,183.321838379,39.9060516357,
0.394822864682,-4.08353853226,197.653884888,36.1997566223,
0.403441762225,-5.08252191544,211.076431274,34.5904884338,
0.412950500723,-5.66214132309,223.151199341,34.7692527771,
0.420573282784,-5.49933671951,232.640792847,36.1481666565,
0.429259476423,-4.76948785782,239.803894043,37.7332801819,
0.438329790849,-3.58242034912,245.00920105,39.4243202209,
0.447997108267,-2.25537729263,248.594970703,41.0221481323,
0.45521611375,-1.16062200069,251.333572388,42.7025527954,
0.46407721061,-0.494354337454,253.283889771,44.1582183838,
0.472356962481,-0.351593792439,254.765533447,44.7714805603,
0.481626166854,-0.550051808357,254.705993652,45.2595329285,
0.489884264041,-1.063159585,253.331756592,45.1029777527,
0.498672068122,-1.72198116779,250.499862671,44.4422264099,
0.507076084567,-2.5982131958,245.743392944,43.1094970703,
0.517087878041,-3.47993612289,238.735321045,41.1659965515,
0.524382175196,-4.24573087692,228.863876343,38.8464317322,
0.53333788637,-4.77963018417,216.001785278,37.229183197,
0.542270610262,10.7326250076,192.110748291,54.0340499878,
0.551524156633,28.5384159088,187.247589111,69.3345565796,
0.559856879194,-3.57171201706,161.827209473,45.7385406494,37.1389694214,168.452713013,73.9883346558,
0.568417475663,-2.49936318398,154.990112305,49.9670524597,42.4871444702,152.143859863,74.8296890259,
0.57725991618,-1.31734621525,148.561981201,54.1299705505,
0.586478148758,1.16765427589,145.9947052,60.5058860779,
0.594801209997,3.01432037354,144.168365479,64.7298583984,
0.603421773285,4.40938282013,143.478210449,67.3727798462,
0.61171685001,3.79623866081,141.129318237,64.5818786621,
0.621162290199,2.9397456646,141.512680054,60.6068954468,
0.629125883678,1.94388353825,144.405761719,55.8759651184,
0.637544225529,0.951805651188,149.574111938,50.6782150269,
0.646546244411,0.122452706099,156.884689331,45.2694625854,
0.655983689025,-0.430227011442,166.32244873,39.9164085388,
0.663468880553,-0.626230061054,177.61730957,35.278339386,
0.67229133213,-0.669829666615,190.27822876,31.794095993,
0.680675359634,-0.692889392376,203.786254883,30.0846862793,
0.690153781574,-0.70242613554,216.793655396,30.0960845947,
0.698403883185,-0.436148017645,227.902404785,31.5537548065,
0.706799570904,0.137197911739,236.316772461,33.2807540894,
0.715402477296,0.93513995409,241.849594116,35.1076049805,
0.725283010068,1.63426661491,245.551544189,36.8505020142,
0.732612621016,2.04542732239,247.725982666,38.3935661316,
0.741440069828,2.02201938629,249.354263306,39.6478614807,
0.751836983536,1.61975741386,249.899597168,40.8343544006,
0.759616012473,0.902893722057,249.309677124,41.5319824219,
0.768070334415,-0.036929231137,247.778381348,41.6600151062,
0.77642471166,-1.12417900562,244.426422119,40.8796043396,
0.784871038026,-2.24449849129,238.675979614,39.2745552063,
0.794163562829,-3.21488618851,230.127426147,37.2036170959,
0.802165135292,-3.95846843719,218.477355957,35.3497085571,
0.810894305151,-4.45171880722,203.75541687,34.8761634827,
0.819602819773,-4.76198625565,186.802429199,36.2393913269,
0.829203174244,18.7355175018,187.81237793,60.4101028442,
0.846268065004,-2.39753007889,143.702224731,54.81590271,
0.855054203341,-1.62228548527,138.916915894,57.3888282776,
0.86435772206,0.476014912128,139.598648071,63.0657501221,
0.872007822338,1.94352900982,139.511978149,66.7157211304,
0.88120506653,2.93813467026,139.663665771,68.8053894043,
0.889836623735,2.32530784607,137.540969849,66.3972625732,
0.898655410673,1.63254857063,137.564819336,62.9743309021,
0.906895850962,0.860614061356,139.593841553,58.5400314331,
0.91522624148,0.0703279227018,143.708892822,53.3549880981,
0.923691890487,-0.601806640625,149.832138062,47.8126754761,
0.933422506213,-1.18388879299,158.021575928,42.2093887329,
0.941014638567,-1.65419960022,168.105697632,37.0641670227,
0.95003298175,-2.21037602425,180.061080933,32.9791030884,
0.959870538302,-2.99436235428,192.898590088,30.457950592,
0.967661560603,-3.89013671875,206.045639038,29.577955246,
0.975839035734,-4.50573635101,218.521270752,30.0992221832,
0.984801076738,-4.55902004242,228.382095337,31.7091007233,
0.993325359967,-4.1356086731,235.330245972,33.4998474121,
1.0024929539,-3.53787517548,239.427566528,34.9065971375,
1.01052251088,-3.07780098915,241.738571167,36.168712616,
1.01897116929,-2.96078276634,243.09362793,37.0628929138,
1.02773531979,-3.20806789398,243.261581421,37.6855125427,72.7076873779,149.219467163,194.091094971,
1.03742395874,-3.67484760284,241.961044312,37.4925842285,72.6832733154,149.655471802,194.54977417,
1.04501242646,-4.25872659683,239.00453186,36.5446662903,72.8018188477,150.141677856,195.04788208,
1.05387585536,-4.82639741898,233.545776367,35.1761627197,73.0676269531,149.646728516,195.606948853,
1.06263034454,-5.31414985657,225.432830811,33.5466690063,73.1062393188,149.588226318,195.595108032,
1.07189755002,-5.63746595383,213.765960693,32.4416542053,73.8453292847,149.704818726,195.769851685,
1.09706062645,-5.30947542191,175.677993774,39.0328369141,
1.10627885903,-4.47008180618,157.082519531,44.7579307556,
1.11479547983,-3.45954680443,143.137664795,50.2045707703,
1.12331543213,-2.41226053238,135.452865601,55.6553878784,
1.13223816155,-1.51473164558,129.93409729,59.3671379089,
1.14166261335,-0.947661817074,126.700775146,60.8738670349,
1.14944264174,-0.848687708378,127.579711914,60.6655578613,
1.1582051265,-1.17920410633,130.794174194,58.7218933105,
1.16798304938,-1.90203523636,135.484130859,55.2961044312,
1.17569045128,-2.84113025665,141.66960144,50.9364585876,
1.18407547824,-3.86574268341,149.117156982,46.1424942017,
1.19277399839,-4.85916423798,157.851501465,41.1673469543,
1.20129061919,-5.62205791473,168.044036865,36.4652175903,
1.21066309975,-6.01977586746,179.180130005,32.3405609131,
1.21894984775,-6.04745578766,190.817962646,29.1007938385,
1.2274498111,-5.76502561569,202.343353271,27.1730003357,
1.23609402797,-5.40204715729,213.311553955,26.4882564545,
1.24546884057,-4.98703861237,222.907669067,27.1199016571,
1.25333115676,-4.4148850441,230.832778931,28.5127067566,
1.26173950414,-3.70767092705,237.428939819,30.1830463409,
1.27117561616,-2.96047353745,242.492553711,32.1319236755,
1.27994109926,-2.3334774971,246.581588745,34.3589134216,
1.28792601427,-2.04985928535,250.112838745,36.1645317078,
1.29678711113,-2.0510764122,252.683578491,38.1391334534,
1.30512283203,-2.30644273758,254.634796143,39.6117134094,
1.31426444034,-2.72153353691,255.284317017,40.831905365,
1.32263314299,-3.27683568001,255.30821228,41.5008888245,
1.33109479421,-4.01725101471,254.552566528,41.6264419556,
1.33969303652,-4.9226026535,252.794326782,41.3141555786,
1.34931904346,-6.12786006927,250.058135986,40.1812591553,
1.35696314706,-7.4994893074,246.447540283,39.0499000549,
1.36584923009,-9.05890274048,241.067337036,37.3044776917,
1.37589000753,-10.4388809204,233.532165527,35.3538475037,
1.38397553354,-11.3033742905,222.552215576,33.4506759644,
1.39196644523,-11.5497140884,208.319290161,32.378868103,
1.40080722,-10.984457016,190.875686646,33.154460907,
1.40934382975,-9.51186561584,170.734649658,36.3489608765,
1.41886422846,-7.38991451263,150.73500061,41.7491569519,
1.42727823937,-4.85820245743,134.889312744,48.6905288696,
1.43561329398,-2.19951534271,125.432563782,57.7491722107,
1.50503154921,-0.899148821831,138.151809692,55.1778793335,
1.53093788104,-8.6986579895,173.923446655,30.5370044708,
1.53930525109,-9.35860729218,182.181793213,29.2918949127,
1.54813736399,-10.1436157227,191.186126709,28.766960144,
1.55755082188,-10.9486780167,200.985549927,29.2678565979,
1.56531252707,-11.580824852,210.987075806,30.28083992,
1.57397806547,-11.8367967606,221.116714478,31.7411651611,
1.58392822638,-11.6976861954,230.652816772,33.1357688904,
1.59201608443,-11.1964578629,239.040466309,34.9443359375,
1.60008861763,-10.5385942459,246.522567749,36.7732925415,
1.60876781514,-9.83985137939,252.645584106,38.5543937683,
1.61704123718,-9.21248149872,256.815246582,40.3078536987,
1.6264760166,-8.74460697174,260.529876709,41.944732666,
1.63445260289,-8.42822551727,263.403442383,43.5264205933,
1.64316145066,-8.2021112442,264.827087402,44.897769928,
1.65188062605,-8.26244831085,265.801361084,45.538848877,
1.66127442815,-8.4664773941,265.876037598,46.178943634,
1.66905412339,-8.9072933197,265.006530762,46.1942100525,
1.67775897337,-9.4920873642,263.182220459,45.654335022,
1.68679430715,-10.2541532516,260.123046875,44.157535553,
1.69606284523,-11.0786428452,254.815109253,42.2892189026,
1.703910836,-11.8481054306,247.065963745,39.5870361328,
1.71283922896,-12.3210830688,236.730484009,36.6609191895,
1.72102070188,-12.4185590744,223.758163452,34.1830482483,
1.73052644204,-12.0227355957,208.104568481,32.9165725708,
1.73899908717,-11.0817117691,190.274200439,33.3896789551,
1.74748572457,-9.545835495,171.544250488,35.8339424133,
1.75580712006,-7.62853527069,154.581253052,39.8939781189,
1.76591985768,-5.51300287247,141.250274658,45.0938720703,
1.77360893639,-3.50243330002,133.378097534,50.9319458008,
1.78247369789,-1.7197753191,131.36050415,58.4936943054,
1.79195078723,-0.248819842935,127.997200012,63.7863426208,
1.80078956311,0.726597249508,126.110038757,66.9228668213,
1.80866853674,3.22641944885,128.337539673,68.9988250732,
1.81739570771,2.89088201523,127.73021698,66.2062454224,
1.82570910763,2.16069984436,128.922729492,62.0362510681,
1.83472878341,1.00575757027,132.391448975,56.6772384644,
1.84299654191,-0.402756720781,138.119857788,50.6032218933,
1.85169206372,-1.93019342422,146.215255737,44.141784668,
1.86018569725,-3.43898749352,156.448959351,37.7196731567,
1.86964279765,-4.9742937088,168.827606201,31.9233055115,
1.87761272096,-6.61867904663,182.878936768,27.3909626007,
1.88628758753,-8.3213186264,197.451309204,24.7089481354,
1.89513702418,-9.96936511993,211.659286499,24.1707954407,
1.90413404583,-11.3652076721,224.883132935,25.6920566559,
1.91216760059,-12.3908729553,236.334609985,28.5009479523,
1.92054163363,-12.8448123932,245.955581665,32.0992507935,
1.92920384054,-12.8193340302,253.28163147,35.5830574036,
1.93837276707,-12.5296411514,259.291381836,38.4341125488,
1.9468800597,-11.9857568741,264.084960938,41.5993995667,
1.95530339879,-11.3487462997,267.945343018,44.6741256714,
1.96413584483,-10.7056798935,271.490997314,47.5981636047,
1.97353097952,-10.1835670471,274.341949463,50.2222747803,
1.98128069135,-9.70944976807,276.588592529,52.3629684448,
1.99000619657,-9.33093929291,278.019165039,53.7126121521,
1.99995469174,-9.01682567596,278.884521484,54.6936454773,
2.00799291059,-8.88779735565,279.232055664,55.2319297791,
2.01600880846,-8.95479393005,278.804962158,55.6991386414,
2.02475463577,-9.27297687531,277.862854004,55.391166687,
2.03355509951,-9.75891494751,275.85067749,54.6803970337,
2.04273701885,-10.3973493576,273.489562988,53.4495849609,
2.05089717023,-11.1243371964,270.279083252,51.8867530823,
2.05948008768,-12.0696783066,266.07598877,49.4258918762,
2.06824890227,-13.1433486938,260.58782959,46.1610717773,
2.07764403697,-14.2743463516,253.331802368,42.1853027344,
2.08558597576,-15.1145019531,243.019897461,37.6440353394,
2.09427749978,-15.4356460571,229.701019287,33.2587356567,
2.1035313793,-15.1700849533,212.829025269,29.8358402252,
2.11219858345,-14.3681344986,191.849609375,28.6119041443,
2.12039471492,-13.0983819962,168.848892212,30.421459198,
2.12954964919,-11.329580307,147.897674561,35.4888916016,
2.13818153955,-9.06103992462,132.065658569,43.0595741272,
2.14761865101,-5.59303712845,130.58694458,55.145565033,
2.15619823698,-1.43452906609,136.019561768,65.9473114014,
2.16428209724,1.33124995232,146.829910278,75.3728027344,
2.17312287201,3.0055603981,153.117401123,80.242515564,
2.21596849743,-7.21955060959,139.442138672,47.0991287231,
2.22450010994,-8.20722770691,144.100479126,44.2429733276,
2.23378863695,-9.47250938416,150.151428223,41.020614624,
2.24193013199,-10.894824028,157.814117432,37.610534668,
2.25054736379,-12.3589763641,167.420501709,34.328502655,
2.25949074845,-13.7956027985,179.139007568,31.5604152679,
2.2685224176,-15.1489439011,192.891433716,29.9051456451,
2.27652365691,-16.5460414886,208.313491821,29.5409908295,
2.28524882898,-17.7554569244,224.067077637,30.3996944427,
2.2939750005,-18.3886394501,237.993713379,32.3061180115,
2.30404742709,-18.4756069183,248.926300049,34.4637451172,
2.31126543313,-18.0201339722,256.259643555,36.9463195801,
2.31995129362,-17.3260173798,260.740020752,39.3267631531,
2.32829401065,-16.4951343536,264.289581299,41.6300010681,
2.33807526502,-15.6579780579,266.965270996,43.7084197998,
2.34545751351,-14.8099155426,268.412231445,45.3266944885,
2.35421100324,-14.1323184967,269.656402588,46.3554611206,
2.36312073986,-13.7073879242,270.119567871,46.4704818726,
2.37206579026,-13.5021486282,269.261962891,46.0424079895,
2.3803235543,-13.5942459106,267.324371338,45.086517334,
2.38898376232,-13.8220872879,263.740570068,43.4174613953,
2.39754535824,-14.1436452866,258.584747314,41.0590057373,
2.40710306963,-14.411942482,250.647521973,37.9622268677,
2.41603979132,-14.6182355881,239.628326416,34.2317771912,
2.42371487777,-14.6418275833,225.182434082,31.0527248383,
2.43262694642,-14.4386606216,207.723861694,29.3874740601,
2.44198909937,-13.9086551666,188.122451782,29.9310836792,
2.44999233757,-12.9890117645,168.6118927,32.8054580688,
2.45837369989,-11.750459671,151.733673096,37.6019439697,
2.46764423686,-10.3557348251,138.69821167,43.4166297913,
2.4770723533,-8.92524051666,131.185958862,50.0309257507,
2.48488003305,-6.18362903595,126.356140137,57.7075386047,
2.49396533918,-4.99888372421,123.096206665,63.219669342,
2.50221544079,-4.19947862625,121.663536072,66.4987945557,
2.55411738838,-9.76827526093,155.412155151,34.6084022522,
2.56270863456,-10.1626777649,162.796081543,31.3543548584,
2.57161070874,-10.5417480469,171.842163086,28.5948562622,
2.58067069555,-10.9725170135,182.225921631,26.6631546021,
2.58846538249,-11.4947738647,193.750289917,25.7307014465,
2.5975416936,-11.9866361618,206.68913269,25.9131565094,
2.60568951847,-12.2653951645,220.46862793,27.0661239624,
2.61532651933,-12.2146663666,233.204727173,29.000202179,
2.6240666831,-11.8801603317,244.863830566,31.4845638275,
2.63190901035,-11.4129199982,254.480728149,34.0047569275,
2.64053357142,-10.8105049133,261.274780273,36.9730949402,
2.64987840062,-10.3476743698,266.333740234,39.6066360474,
2.65799624208,-10.0417718887,269.123046875,42.3175430298,
2.66647988113,-9.9251832962,270.711456299,44.7578926086,
2.67539361553,-9.98852825165,271.623962402,46.5944862366,
2.68437964326,-10.2396945953,271.32510376,47.5391731262,
2.69259309849,-10.6565532684,270.343261719,48.0134315491,
2.70125164076,-11.2883033752,267.939208984,47.4538269043,
2.70982989413,-12.1229658127,263.59753418,45.853012085,
2.72004624108,-13.101981163,257.274230957,43.1294288635,
2.72761471986,-14.1135854721,248.546279907,39.5981636047,
2.73616398926,-14.9652004242,236.657241821,36.4033622742,
2.74439010414,-15.7642059326,222.239471436,34.0457420349,
2.75452049866,-16.3020629883,205.049591064,33.3161888123,
2.76202501283,-16.5162086487,186.333648682,34.6083221436,
2.77092742016,-16.3357105255,168.030441284,38.1635780334,
2.77951999893,-15.7224674225,152.208175659,43.569683075,
2.7888564994,-14.8795871735,140.186935425,49.8528594971,
2.7970772839,-14.0348558426,131.899978638,55.8317756653,
2.80612127956,-13.2027196884,128.082580566,61.8402404785,
2.81594984109,-12.8440818787,126.892311096,63.3239173889,
2.82356662647,-12.9269323349,129.165222168,62.411605835,
2.83216919971,-13.4484071732,134.061630249,59.4110603333,
2.84013712412,-14.3393907547,141.187820435,54.723033905,
2.84903386793,-15.3129167557,150.123886108,49.0377044678,
2.85848030756,-16.1641559601,160.707336426,42.9108314514,
2.86659581698,-16.8014774323,173.127624512,36.9880599976,
2.87533331557,-17.0956001282,186.87097168,31.9665737152,
2.8841690931,-17.0156669617,200.979614258,28.4837303162,
2.89285028951,-16.6858272552,214.188095093,26.6406860352,
2.90076224489,-16.0755596161,224.837387085,26.5136299133,
2.90950840535,-15.1674842834,233.208557129,27.673789978,
2.91814829128,-13.8212833405,239.658508301,29.2717018127,
2.92801050086,-12.024520874,244.363754272,30.8797340393,
2.93587714798,-10.0043907166,248.138595581,32.2367630005,
2.94429948762,-7.95104408264,250.757843018,33.2999191284,
2.9527241593,-6.08775281906,253.186248779,34.0469932556,
2.96243745128,-4.61615800858,254.75970459,34.9123764038,22.8416805267,188.639923096,76.351852417,
2.97006822891,-3.75527191162,256.005859375,35.6996459961,
2.97877641039,-3.48029351234,256.664794922,36.626991272,
2.98748059407,-3.8132879734,256.622131348,36.7135124207,
2.99631670476,-4.61759376526,254.982574463,36.0624160767,
3.00461111518,-5.58479547501,251.732711792,35.1512031555,
3.01351618771,-6.67247104645,247.011657715,33.0989990234,
3.02208378031,-7.70474004745,239.776062012,30.6085853577,
3.0315278879,-8.71291637421,229.682067871,28.1096134186,
3.03995122699,-9.6149148941,216.787765503,26.5261898041,
3.04842187323,-10.387960434,200.799758911,26.3714237213,
