Position Data for Tapping Exercise, Total Taps:,15
Time (s),Finger 1,,,Finger 2,,,Finger 3,,,Finger 4,,,Finger 5
,x,y,z,x,y,z,x,y,z,x,y,z,x,y,z
0.00272382614953,-13.6309947968,141.284927368,68.0939865112,
0.0109556045655,-13.3705253601,131.009521484,72.8827972412,
0.019789050059,-13.0063085556,125.158332825,79.0394515991,
0.0293530912895,-12.3631572723,121.735595703,83.9272766113,
0.037052164469,-11.498046875,120.845748901,87.3269882202,
0.0460178701119,-11.3027572632,121.880767822,88.5135192871,
0.0545884610516,-11.0877218246,123.619590759,86.437171936,
0.0640359001353,-10.9667367935,127.474388123,83.1701889038,
0.0718688992091,-10.899102211,133.115737915,78.760383606,
0.0803655310728,-10.8609638214,140.684066772,73.3665542603,
0.0890780434826,-10.9078893661,150.044754028,67.6427993774,
0.0983629058588,-11.326415062,161.481170654,61.9846000671,
0.106526721881,-12.3757600784,174.725387573,57.1484375,
0.11510730729,-13.9824562073,188.856262207,53.745803833,
0.12380982523,-15.8201951981,202.374923706,52.2810783386,
0.133369868673,-17.5932674408,214.090408325,52.3856391907,
0.141204533491,-18.9961948395,223.056472778,53.4378166199,
0.149628205726,-19.8525753021,229.826293945,54.9001197815,
0.158500962801,-20.1263656616,234.623901367,56.171787262,
0.167649900388,-19.9921112061,238.204971313,57.3813743591,
0.176091562669,-19.6588535309,241.002883911,58.3733177185,
0.184586861936,-19.2560882568,243.751083374,59.1012687683,
0.1928522884,-18.7117004395,246.21661377,59.2903747559,
0.202190454615,-17.9884395599,247.777175903,59.9039955139,
0.2105974694,-17.2609214783,248.679351807,60.3083305359,
0.219024139976,-16.6929779053,249.401657104,60.6054420471,
0.227545758014,-16.3515663147,249.193847656,60.7899131775,
0.237060493194,-16.3038959503,248.621002197,60.4791488647,
0.244674613381,-16.3911952972,246.552139282,59.9275474548,
0.253586682036,-16.697807312,243.330566406,58.9226264954,
0.262512742949,-17.1743049622,238.639175415,57.404800415,
0.271989832293,-17.5860939026,231.853515625,56.1346092224,
0.297311154495,-17.8830451965,205.549972534,56.7368965149,
0.306696627866,-17.7733268738,187.871688843,59.0332336426,
0.314566273329,-17.4769954681,171.770126343,62.6666259766,
0.323419041464,-16.9762229919,157.901504517,67.408706665,
0.331918338519,-16.4008522034,146.690872192,72.1470336914,
0.341496038858,-15.9324178696,140.834136963,78.4049301147,
0.349337366657,-15.4155721664,138.288818359,83.7074966431,
0.358183804961,-14.111697197,139.232208252,87.0494384766,
0.36794973448,-13.9004173279,137.393432617,85.5317001343,
0.375928319663,-13.9130439758,139.282409668,82.6046295166,
0.384038165548,-14.1271886826,143.74055481,78.1883087158,
0.392875275681,-14.4621334076,150.12713623,72.7696685791,
0.401277959529,-14.9184370041,158.134902954,66.9195556641,
0.410599468294,-15.5471715927,167.926025391,61.3194770813,
0.418842906925,-16.4540195465,179.134689331,56.3703994751,
0.427347534364,-17.6604957581,191.107498169,52.4698104858,
0.435963766716,-19.0022029877,203.166595459,49.9676437378,
0.445494493047,-20.1969261169,214.258956909,49.0627937317,
0.453025992284,-21.0527896881,223.481903076,49.2109985352,
0.46209297522,-21.5097026825,231.126968384,49.8742790222,
0.470708874423,-21.3854598999,236.70300293,50.8735427856,
0.480004064418,-20.9256381989,241.048950195,52.0735321045,
0.487866713752,-20.3088436127,244.387680054,53.1767730713,
0.496623534977,-19.6943130493,247.035690308,54.1257820129,
0.50517013919,-19.0622425079,248.708847046,55.1257514954,
0.514292424858,-18.5212211609,249.285827637,55.7970237732,
0.522566513196,-18.2062568665,249.794158936,56.002281189,
0.530973527981,-18.0314464569,249.011322021,56.0968551636,
0.539493147125,-17.9400196075,247.707748413,55.9677734375,
0.549210436892,-17.9191493988,245.486694336,55.3036308289,
0.557031109453,-17.8963375092,241.856872559,54.4576873779,
0.565781600848,-17.8272304535,236.084487915,53.3704299927,
0.576101223989,-17.7146663666,228.025482178,52.2477836609,
0.584050158912,-17.555431366,217.462387085,51.8263473511,
0.592000426431,-17.2453956604,204.604675293,52.6857337952,
0.600967131521,-16.6803627014,190.249740601,55.0333976746,
0.609489082708,-15.7727403641,175.298934937,58.9160423279,
0.618600374459,-14.5352973938,160.980010986,64.0202560425,
0.62723326426,-13.1891155243,149.907226562,69.9256362915,
0.635514015578,-10.5578718185,147.960662842,79.0722503662,
0.643988659608,-7.25813627243,150.325775146,86.1191482544,
0.653857199017,-4.89773130417,152.733963013,91.0682144165,
0.66166054783,-3.17691469193,154.486618042,94.1418075562,
0.670230139323,-1.71372783184,162.54069519,97.8562240601,
0.67912188589,-1.19779217243,182.227981567,104.744003296,
0.696152462304,-8.88522148132,145.243560791,69.820526123,
0.705322388278,-9.30685424805,148.914291382,66.6770706177,
0.713469213702,-9.85442638397,153.908905029,62.8994789124,
0.722851688732,-10.6893634796,160.413772583,58.8826065063,
0.731102123492,-11.8564052582,168.537506104,55.0242576599,
0.739559776923,-13.2742061615,178.415679932,51.691734314,
0.74810171705,-14.715294838,189.331436157,49.0896377563,
0.75771206599,-15.9663200378,200.88230896,47.4573249817,
0.765559057322,-16.6780872345,212.244827271,46.9013214111,
0.773937088145,-16.8234958649,222.202880859,46.6996612549,
0.784098798665,-16.3537368774,230.020477295,46.9169883728,
0.791834185084,-15.4087142944,235.647018433,47.0885429382,
0.800090283377,-14.2303628922,239.360794067,47.4282836914,
0.808830780302,-13.0691280365,241.443450928,47.9663963318,
0.817289100031,-12.1401052475,242.568069458,48.3577613831,
0.826314439344,-11.5152244568,242.692367554,48.5834960938,
0.835113570491,-11.2786531448,241.732284546,48.5303878784,
0.843257064424,-11.3594865799,239.680801392,48.1474342346,
0.851965912195,-11.6028232574,236.420928955,47.6770706177,
0.861322401604,-11.9947872162,231.787094116,47.2657661438,
0.869292324914,-12.4751291275,225.170211792,46.7337684631,
0.87842193986,-13.0238847733,216.832855225,46.4319038391,
0.886966212029,-13.4783172607,206.371582031,46.9642715454,
0.896171784946,-13.7306642532,194.383148193,48.3552742004,
0.904303618664,-13.6805467606,181.579483032,50.9374008179,
0.91309009015,-13.2892599106,168.645874023,54.7771873474,
0.921713651779,-12.5961265564,156.368148804,59.6175079346,
0.931160091416,-11.7755231857,145.79800415,64.9568405151,
0.939329237822,-10.9599275589,140.428970337,72.3706283569,
0.9479531326,-9.54619503021,134.057312012,78.2426757812,
0.956651985901,-6.78441810608,136.714660645,83.6952056885,
0.966124411159,-4.77904558182,143.045532227,88.3730392456,
0.973745527475,-2.8720228672,146.389541626,91.4049377441,
0.982424391837,-2.6651096344,146.166229248,91.9085540771,
0.992229632936,-3.89182686806,140.969314575,87.0573501587,
1.00036513129,-5.18185806274,139.650466919,81.2732162476,
1.00825243365,-6.82546186447,141.583877563,74.2836303711,
1.0174486784,-8.81539726257,146.462875366,67.0011749268,
1.02605991351,-11.0654163361,153.832427979,59.9459762573,
1.03484172091,-13.3760528564,163.181915283,53.5731048584,
1.04336800304,-15.4816732407,173.996414185,48.311416626,
1.05163009801,-17.0714626312,184.976119995,44.3953475952,
1.06031629165,-17.8317604065,195.597946167,41.8669433594,
1.07007089411,-17.5377101898,204.691467285,40.5050888062,
1.07774664686,-16.3899002075,212.427947998,39.6319236755,
1.08621262901,-14.5259485245,218.7472229,39.6801719666,
1.09521631364,-12.3342418671,223.741256714,40.1436882019,
1.10416502868,-10.1998386383,227.828918457,40.7214393616,
1.11242112698,-8.29278945923,230.988357544,41.2039794922,
1.12108566593,-6.74395704269,233.112731934,41.9843177795,
1.12948601774,-5.71057271957,234.391876221,42.436706543,
1.13886582758,-5.2173910141,234.735137939,42.9023399353,
1.14723153189,-5.25350570679,234.133468628,42.7716293335,
1.15548663073,-5.63496112823,232.87046814,42.7052955627,
1.16427543426,-6.19511508942,230.057220459,42.5097618103,
1.17372753743,-6.85757398605,225.84854126,42.0843734741,
1.18159151936,-7.55210447311,219.425521851,41.8431968689,
1.1901627766,-8.26626873016,210.674194336,41.9793243408,
1.20015391483,-8.89688110352,200.079620361,42.959526062,
1.2083037386,-9.26793861389,188.01524353,45.3446540833,
1.2164748839,-9.26595973969,175.1925354,49.1481781006,
1.22506779582,-8.89136505127,162.645477295,54.1263885498,
1.23352744815,-8.19017887115,151.272476196,59.8376083374,
1.24310748053,-7.2193479538,142.655044556,65.8602294922,
1.25145019756,-6.11700057983,139.677627563,73.9807510376,
1.25991484712,-4.74808979034,137.478759766,79.9728393555,
1.33786538116,-7.58108282089,153.686676025,65.2194061279,
1.34730415837,-9.47221851349,160.429489136,59.9410858154,
1.35516380936,-11.5206651688,168.913024902,55.0033073425,
1.36370841468,-13.6149568558,178.968093872,50.8426399231,
1.37250854527,-15.5201253891,189.839538574,47.5587425232,
1.39921110319,-16.4787120819,213.668487549,44.2074394226,
1.40827775298,-16.1297988892,222.638885498,43.9623985291,
1.41581358315,-15.1727199554,228.282440186,44.0049591064,
1.42431154761,-13.8451547623,231.599212646,44.3070220947,
1.43414877101,-12.6323051453,232.955230713,44.6335983276,
1.44185817181,-11.9438447952,233.10369873,44.6541557312,
1.45053870192,-11.6644582748,231.880081177,44.7309837341,
1.45932384081,-11.6190948486,229.494766235,44.525138855,
1.46822691444,-11.6762599945,225.169967651,44.177028656,
1.47645302932,-11.877497673,218.728225708,44.0462303162,
1.48541873497,-12.1673116684,210.331802368,44.2378158569,
1.49388538342,-12.3638534546,199.895126343,45.5513763428,
1.50411105855,-12.4008197784,188.023086548,47.9276847839,
1.5115882545,-12.1404132843,175.450408936,51.7312088013,
1.52010887309,-11.6282310486,163.177764893,56.6935653687,
1.52869545518,-10.9556465149,152.399520874,62.3324546814,
1.5382151876,-10.2160215378,143.264389038,67.8351898193,
1.546268065,-9.4484462738,139.345596313,75.3372802734,
1.5548036753,-8.27485084534,135.341369629,81.0344848633,20.3384037018,174.423095703,99.5069198608,
1.56319136744,-7.19926023483,132.700424194,85.0704269409,13.2068796158,168.52746582,96.7173233032,
1.57287301027,-6.4993596077,131.849807739,87.5286102295,9.20930957794,166.522201538,95.7146987915,
1.58082694243,-5.58518218994,135.143005371,89.3407669067,5.79939651489,173.141937256,98.563911438,
1.58945716703,-6.04870843887,135.209518433,85.6987991333,
1.59822631477,-6.70848989487,137.682540894,81.0831451416,
1.60748752357,-7.59949970245,142.135635376,75.3395996094,
1.6162756608,-8.65360832214,148.462661743,69.0835494995,
1.62418928193,-9.81602478027,156.428436279,62.7592964172,
1.63250967798,-11.0530414581,165.634033203,56.7646713257,
1.64218698987,-12.2220487595,175.753219604,51.508190155,
1.65015124964,-13.2113828659,186.216629028,47.3459320068,
1.65881045821,-13.8333911896,196.493103027,44.4482688904,
1.66755661867,-14.0371646881,206.198562622,42.6725082397,
1.67678084793,-13.7860307693,214.956558228,41.78074646,
1.68461184811,-13.0656719208,222.059158325,41.7443275452,
1.69354423885,-12.0950937271,227.899627686,42.1944160461,
1.70185430728,-11.0244073868,232.472808838,43.0331764221,
1.7121805934,-9.93771648407,235.516693115,43.9377479553,
1.719428916,-9.01150131226,237.921325684,44.4843139648,
1.72821838583,-8.23272037506,239.000061035,45.1198997498,
1.73647315152,-7.78790044785,239.817382812,45.4772338867,
1.74610815349,-7.72050857544,239.635528564,45.9341659546,
1.75358701518,-7.99311590195,238.611312866,46.1976203918,
1.76253972802,-8.50652122498,237.083496094,46.1177978516,
1.77116695429,-9.20798587799,234.101776123,45.9549064636,
1.78068302206,-10.052022934,230.533325195,45.623714447,
1.78844106261,-10.9698944092,225.687973022,45.3135604858,
1.79720021588,-11.8729467392,219.010513306,45.2506866455,
1.80598102383,-12.6885080338,210.504608154,45.6947059631,
1.81511130508,-13.2714929581,199.975662231,47.1885261536,
1.82412798252,-13.5340709686,188.262008667,49.9191207886,
1.83182172531,-13.3929052353,175.761627197,53.9063529968,
1.84089537123,-12.8395719528,163.445205688,59.0462799072,
1.85057501516,-11.9773607254,151.913848877,64.5983657837,
1.85809785252,-11.12251091,145.837265015,72.4946746826,
1.8670019256,-9.6828994751,139.329620361,78.6638336182,
1.93619463897,-9.00484848022,150.308074951,75.5962371826,
1.94504640765,-10.6141843796,155.015426636,69.858833313,
1.95495992218,-12.437623024,161.872619629,63.9743118286,
1.96245877281,-14.3440933228,170.331344604,58.4698562622,
1.97103369469,-16.2401809692,180.052780151,53.7838134766,
1.97973854467,-17.8941822052,190.430221558,50.1909828186,
1.98863995256,-19.2556781769,200.994766235,47.6093254089,
1.99706195905,-20.1349029541,211.251922607,46.1467857361,
2.00545464843,-20.3940181732,220.058425903,45.4189376831,
2.01427743315,-20.0179519653,226.950317383,45.3444747925,
2.02324014046,-19.2170333862,231.903244019,45.5089874268,
2.03212455774,-18.1848163605,234.611953735,45.8421936035,
2.04004417556,-17.1689548492,236.172409058,46.2623634338,
2.04864908084,-16.383846283,236.78894043,46.3768920898,
2.05840934683,-15.8437833786,236.669845581,46.4387130737,
2.0660940946,-15.6905136108,235.97807312,46.6698722839,
2.07448678398,-15.8234081268,234.309814453,46.4901275635,
2.08370968064,-16.0162677765,231.32611084,46.3042869568,
2.0926040924,-16.256029129,226.871276855,45.9741973877,
2.1008738498,-16.524312973,220.548858643,45.9454078674,
2.1098045748,-16.8067150116,211.939437866,46.4763183594,
2.118109646,-16.9387874603,201.113861084,48.1653404236,
2.128127103,-16.7971305847,188.574920654,51.1984825134,
2.1359684308,-16.2089710236,175.126281738,55.6678771973,
2.14429449038,-15.2070331573,162.030715942,61.4626274109,
2.15313193366,-13.9586582184,150.955810547,68.059677124,
2.16267165502,-12.076171875,141.743438721,75.7311325073,
2.17052164469,-10.8745641708,135.010818481,82.5506591797,
2.24849383341,-5.45485877991,149.070007324,85.9426956177,
2.27440882712,-13.4014616013,163.933227539,58.2569541931,
2.28302039538,-14.0838317871,169.856628418,55.2620544434,
2.29209437445,-14.8778114319,176.694641113,52.4705696106,
2.30111305078,-15.8072366714,184.387145996,50.1743888855,
2.30913194699,-16.7352104187,192.235427856,48.5214500427,
2.31776483679,-17.4304504395,199.987472534,47.4107208252,
2.32642504481,-17.6628093719,207.167999268,46.6236152649,
2.33617198484,-17.4296073914,213.594711304,45.9717903137,
2.34392202981,-16.9251937866,219.289886475,45.6473731995,
2.35230006063,-16.4026145935,223.598754883,45.3993835449,
2.36102556585,-15.9990320206,226.729492188,45.2897338867,
2.37067089544,-15.8287973404,228.656158447,45.2609977722,
2.37816741403,-15.9559488297,229.887313843,45.2790794373,
2.386941559,-16.2184371948,229.760940552,45.3867149353,
2.39578066803,-16.6276302338,228.789077759,45.4434204102,
2.40500056635,-17.0566730499,226.309860229,45.4818153381,
2.41301546478,-17.5020561218,222.412948608,45.4292755127,
2.4219388605,-17.9128761292,216.840377808,45.640625,
2.4305717503,-18.2121677399,209.291305542,46.2124710083,
2.43989958889,-18.1871490479,199.4559021,47.569858551,
2.44817567613,-17.6665782928,187.817749023,50.2442054749,
2.45644010314,-16.7182502747,175.235733032,54.0534477234,
2.46503001672,-15.3542585373,162.580963135,59.0985107422,
2.47497351466,-13.7756557465,150.687362671,64.4812164307,
2.5002305391,-7.83654546738,145.91885376,78.9602050781,
2.50911262435,-4.85192775726,149.940979004,86.4901351929,
2.51699759466,-2.83966159821,150.832870483,91.0962142944,
2.52646069175,-1.2007856369,153.227203369,94.2362518311,
2.53465715637,0.15808647871,153.307678223,95.5909042358,
2.54423052578,-1.49072670937,146.763397217,93.5990371704,
2.55218112644,-3.17402219772,142.158874512,88.6811523438,
2.56067942405,-4.87856674194,142.122436523,83.5970840454,
2.56927899895,-6.63027858734,144.872558594,77.4708404541,
2.57858251767,-8.4314289093,150.241821289,70.4152984619,
2.58633822618,-10.0782184601,157.641983032,63.2168273926,
2.59524263241,-11.5549077988,166.900405884,56.4378395081,
2.60427963194,-12.8040533066,177.144332886,50.4766845703,
2.61325866354,-13.7940196991,187.96786499,45.7069015503,
2.62138883151,-14.5402412415,198.639404297,42.6506080627,
2.63033321562,-15.0943460464,208.239425659,41.2101287842,
2.63868359508,-15.4629268646,216.187438965,40.9422149658,
2.6477559084,-15.5117254257,221.827758789,41.3451843262,
2.65617758174,-15.3886842728,225.241119385,41.8615264893,
2.66415316858,-15.3592290878,227.171447754,42.5601501465,
2.67286434839,-15.6400661469,228.29284668,43.0723419189,
2.68269357622,-16.2624397278,228.148101807,43.5597724915,
2.69066916306,-17.0656700134,227.277297974,44.0644111633,
2.69922109766,-17.7699375153,225.155227661,44.4580764771,
2.70816015138,-18.3411502838,221.68510437,44.8522071838,
2.71701092062,-18.8404178619,216.685516357,45.3217468262,
2.72521238248,-19.0908145905,209.722198486,46.3802146912,
2.73426537316,-19.039144516,201.04800415,48.2980880737,
2.74249615213,-18.5971946716,190.956802368,51.309387207,
2.75217479661,-17.7442436218,179.984832764,55.3996696472,
2.76017503648,-16.5342826843,169.108062744,60.6256446838,
2.76863502195,-15.1704587936,158.704864502,66.1968536377,
2.77738817854,-13.9779167175,152.17779541,73.7509078979,
2.78731535217,-11.9128322601,145.455047607,80.3169784546,
2.79467294764,-8.69616413116,146.636032104,86.3645172119,
2.80336347221,-5.96842718124,150.785324097,91.745223999,
2.81216393596,-3.83627820015,152.552383423,95.2437210083,
2.82141515028,-2.44012475014,155.098693848,97.3886871338,
2.82944304152,-1.34319114685,156.589004517,98.7594528198,
2.83830513782,-0.297326177359,158.878875732,99.4146194458,
2.84818800264,5.94026327133,156.178070068,95.8485183716,
3.06191973775,-15.7888507843,190.068450928,48.6128578186,
3.08735399745,-11.9258956909,151.935165405,68.5795059204,
3.09695768342,-9.76884841919,151.583374023,75.2323455811,
3.10468140962,-8.51221847534,147.617218018,79.4498519897,
3.18334221731,-10.2943706512,146.199432373,73.163230896,
3.20862822572,-14.8213367462,169.255477905,53.6141090393,
3.2173317431,-15.2770729065,174.454238892,51.4822006226,
3.22612554387,-15.6502866745,180.122451782,49.5028114319,
3.23534577534,-15.9051361084,186.000549316,47.8327026367,
3.24331636494,-16.0713405609,191.962463379,46.4137802124,
3.25234070481,-16.103302002,197.676071167,45.431930542,
3.2606294517,-16.0197067261,202.948257446,44.8632888794,
3.27005490295,-15.8150348663,207.772415161,44.5215110779,
3.27835930785,-15.5346975327,211.838546753,44.2719573975,
3.28684394635,-15.2889795303,215.495635986,44.1533584595,
3.29543286048,-15.1817035675,218.29737854,44.1444587708,40.8269462585,177.981719971,194.554763794,
3.30482766203,-15.2583913803,220.720214844,44.2594985962,
3.31255072193,-15.4061155319,222.471420288,44.4110794067,
3.32103136265,-15.5748872757,223.762191772,44.6042098999,
3.33010467541,-15.7100219727,224.32510376,44.7743682861,
3.3391223523,-15.768652916,224.327133179,44.9070739746,
3.3473574622,-15.7980928421,223.589920044,44.8139724731,
3.35623221817,-15.8057126999,222.459869385,44.791217804,
3.36472984948,-15.7974863052,220.543930054,44.7667121887,
3.37392376218,-15.8320703506,217.778488159,44.6597595215,
3.38233810625,-15.8508682251,214.006591797,44.7394332886,
3.39140575548,-15.8108205795,208.922973633,44.8533363342,
3.39956524057,-15.7044868469,202.433135986,45.3325996399,
3.40921956517,-15.516740799,194.193344116,46.525844574,
3.41665078656,-15.1699638367,184.522827148,48.7107543945,
3.42551688066,-14.4930105209,173.554473877,52.1388549805,
3.43444260842,-13.5385799408,162.153366089,56.7674064636,
3.44352325047,-12.360575676,150.960571289,62.113948822,
3.4515198257,-11.1766672134,142.295913696,69.0404281616,
3.46047187223,-7.41354227066,145.572296143,77.6533584595,
3.4689828295,-4.42400169373,150.17137146,84.1817855835,
