Position Data for Tapping Exercise, Total Taps:,16
Time (s),Finger 1,,,Finger 2,,,Finger 3,,,Finger 4,,,Finger 5
,x,y,z,x,y,z,x,y,z,x,y,z,x,y,z
0.00113903639986,-5.36704492569,138.961456299,70.0305023193,
0.00903533378197,-4.93279647827,131.835494995,75.0101928711,
0.0177431821059,-4.27762794495,127.772186279,79.4050140381,
0.0265699646196,-3.94530963898,125.856109619,82.1734542847,
0.0356669309649,-4.14663982391,125.907737732,82.981842041,
0.0435402410666,-4.60688114166,127.615142822,80.7623977661,
0.0524909550049,-5.34437656403,130.687835693,77.1663589478,
0.0606517726858,-6.19100522995,135.499282837,72.5587997437,
0.0700259189915,-7.0428185463,141.972305298,67.186088562,
0.0781770753516,-7.82734775543,149.871124268,61.7147598267,
0.0866733740663,-8.61849594116,158.938552856,56.4533119202,
0.0960062098972,-9.63189697266,169.054824829,51.6424026489,
0.104761032229,-10.9341049194,180.212753296,47.6415100098,
0.112386479481,-12.3523073196,192.030105591,44.7158546448,
0.121121979172,-13.7777805328,204.216125488,42.87758255,
0.129965752284,-15.0897407532,216.096176147,42.5342292786,
0.139249948362,-16.4458599091,227.195419312,43.3739776611,
0.147149577234,-17.7120704651,237.34753418,45.2194213867,
0.155811450997,-18.748167038,245.779388428,47.8105278015,
0.164227127656,-19.4464817047,252.693161011,50.433303833,
0.173695888275,-19.7027568817,258.078094482,52.7104644775,
0.181677804948,-19.7187004089,262.63067627,54.3280944824,
0.190355669863,-19.4081401825,265.331420898,55.5091285706,
0.199004550815,-19.024017334,266.758331299,56.5150527954,
0.208605238435,-18.6656265259,267.42565918,57.0120429993,
0.216325966299,-18.4656581879,267.667999268,57.0727882385,
0.225058800797,-18.2445392609,267.084228516,56.8244857788,
0.233982862816,-18.0769996643,265.720428467,56.0095748901,
0.243150123598,-18.0436420441,263.808746338,54.8814659119,
0.251064077877,-18.0144329071,260.42288208,53.2565879822,
0.259637334009,-18.07670784,256.178619385,51.3406639099,
0.268595044076,-18.1302509308,250.064910889,49.0158500671,
0.277792288267,-18.0915641785,241.782867432,46.5264053345,
0.286332895798,-17.8823165894,230.900161743,44.3378868103,
0.294538355443,-17.502450943,217.637588501,42.994102478,
0.304188015964,-16.8409538269,202.29208374,43.2792243958,
0.31284256045,-15.9559469223,185.724609375,45.1315116882,
0.320707874976,-14.8822402954,169.601654053,48.7609405518,
0.329347094608,-13.6541862488,155.424499512,53.6731834412,
0.338328458253,-12.3689908981,144.303726196,59.2542076111,
0.347784559211,-11.1243972778,136.573120117,64.7984466553,
0.355659201908,-9.77951145172,132.980880737,71.533203125,
0.364524962854,-8.518034935,132.306274414,76.7221603394,
0.373148191334,-8.08100700378,132.496856689,79.1523666382,
0.382176528987,-7.03202772141,139.017272949,81.0695877075,
0.390476602946,-7.60712432861,141.084655762,77.119972229,
0.400053636988,-8.46786403656,145.572952271,72.102432251,
0.407621116316,-9.54164028168,151.802474976,66.2627258301,
0.417055895738,-10.6954832077,159.634979248,60.1391792297,
0.424917545625,-11.8441295624,169.017532349,54.1471633911,
0.433433833279,-13.0179758072,179.837677002,48.6669044495,
0.442185324121,-14.1957998276,191.879470825,44.0694847107,
0.451272629145,-15.3124389648,204.230545044,40.8644256592,
0.459353157919,-16.2961864471,216.11390686,39.2376365662,
0.468097319483,-16.9518051147,227.082885742,39.0447273254,
0.476509997801,-17.0618515015,236.536453247,39.6790504456,
0.485983755655,-16.477399826,244.262557983,40.9084701538,
0.494161897084,-15.3927259445,250.345581055,42.5157203674,
0.502432653931,-14.1350002289,255.235275269,43.9370155334,
0.512062658662,-12.749004364,258.652587891,45.3482933044,
0.520712205913,-11.5318717957,261.200622559,46.3901977539,
0.528720108207,-10.5529737473,263.530700684,47.1006088257,
0.53730935549,-9.70591831207,264.398864746,47.9164352417,
0.546211096527,-9.19748401642,264.599822998,48.3038024902,
0.55522943971,-9.10857009888,263.832763672,48.2385787964,
0.563285981757,-9.43733215332,262.443389893,47.2554969788,
0.572189721687,-10.0385780334,259.759490967,46.7320098877,
0.580490795093,-10.7896032333,255.945831299,45.8729400635,
0.589839288927,-11.5855083466,250.347366333,44.6550445557,
0.598064737512,-12.351647377,242.742523193,43.21043396,
0.60809185584,-13.0364303589,232.737045288,42.0033988953,
0.615405142488,-13.522567749,219.807800293,41.7635192871,
0.625104442209,-13.7183895111,204.962753296,42.9585418701,
0.632575641478,-13.5333604813,188.673156738,45.7034835815,
0.641621969177,-13.0149211884,172.392929077,49.8785820007,
0.650556358815,-12.2015047073,157.929504395,55.046913147,
0.659722287001,-11.1765985489,145.981185913,60.4537811279,
0.667661227454,-9.12389087677,146.609130859,68.9273986816,
0.676709554047,-7.81743574142,138.998046875,74.6320037842,
0.685299134479,-6.67075920105,134.26008606,79.3100585938,
0.694774224929,-4.91322231293,134.920272827,82.544090271,
0.704107727058,-4.86012077332,133.444458008,83.6000595093,
0.711202134819,-4.35580205917,137.104110718,84.2024841309,
0.72002625214,-4.41556596756,141.912124634,84.016960144,
0.729430381855,-6.22082424164,142.478546143,78.7961807251,
0.737235729563,-8.15867996216,145.666213989,73.4901275635,
0.745818980164,-10.1238555908,150.993148804,67.874671936,
0.754443208092,-12.0118265152,158.230209351,61.8403511047,
0.763497531366,-13.8183908463,167.489822388,55.7119560242,
0.771792274941,-15.5719165802,178.412139893,50.0796051025,
0.78041283823,-17.2154464722,190.532241821,45.3798904419,
0.788888814856,-18.5802974701,203.476531982,42.0744018555,
0.79820399379,-19.6223182678,216.246841431,40.3537139893,
0.806107287301,-20.2020797729,227.954193115,40.1699829102,
0.815978491901,-20.2570667267,238.172927856,41.1022338867,
0.823515654671,-19.9128189087,246.352935791,42.3436126709,
0.832942771666,-19.2638874054,252.145309448,43.7663154602,
0.840759779589,-18.5276584625,256.816925049,45.0641708374,
0.849173457354,-17.6458835602,259.367675781,46.2714080811,
0.858204793348,-16.7782077789,260.807434082,47.2790756226,
0.86741836184,-16.1839199066,261.351013184,47.7017021179,
0.892854953592,-16.039773941,258.402160645,47.1296691895,
0.90220544632,-16.1181926727,254.496353149,46.1857566833,
0.910397580006,-16.2039241791,249.633789062,45.033821106,
0.918723972735,-16.2885246277,242.717819214,43.5917167664,
0.928131100791,-16.4065532684,233.442901611,42.2887039185,
0.937087811411,-16.4306297302,222.029632568,41.7991523743,
0.94497844526,-16.26379776,208.989990234,42.3296661377,
0.953579685907,-15.6995382309,194.89503479,44.2324981689,
0.962560716404,-14.8379468918,180.607376099,47.2316970825,
0.971605045208,-13.7795190811,167.327774048,51.2042160034,
0.979779855147,-12.6760787964,155.917556763,55.7294807434,
0.989063718076,-11.7036819458,146.96206665,60.3389854431,
0.997485724566,-10.8351230621,141.343536377,65.0823135376,
1.00808386026,-10.1996154785,139.092163086,70.4378585815,
1.01479814503,-9.80549049377,138.159423828,74.0196838379,
1.0241509698,-9.55620384216,137.486175537,74.1599731445,
1.0316271663,-9.66138267517,138.858703613,72.6555862427,
1.04181519559,-10.1125545502,142.551269531,69.7252807617,
1.04931171418,-10.9933862686,148.317382812,65.5147476196,
1.05773038918,-12.172624588,155.859375,60.4577484131,
1.06679170859,-13.360959053,164.739868164,55.027545929,
1.0757001126,-14.4840688705,175.254394531,49.6779518127,
1.08374832593,-15.5152864456,187.063156128,44.9742774963,
1.09269470893,-16.5864200592,199.567855835,41.3410949707,
1.10079789183,-17.5920257568,211.543640137,39.0916748047,
1.11035826842,-18.3395233154,222.829574585,38.0418395996,
1.11841847511,-18.3716812134,232.132904053,38.159702301,
1.1268744628,-17.6456279755,239.62210083,38.7923927307,
1.1360670429,-16.2906284332,245.238967896,39.6617050171,
1.14517600261,-14.5390529633,249.303939819,40.5005493164,
1.15293937355,-12.6015825272,252.899124146,41.1950454712,
1.16167820473,-10.5564069748,255.202545166,41.839553833,
1.17044402098,-8.72426795959,257.155883789,42.427898407,
1.17964426351,-7.29433298111,258.55859375,42.7892684937,
1.18773911769,-6.35698890686,259.411956787,43.1305885315,
1.19618144627,-5.97496080399,259.43661499,43.43019104,
1.2050845199,-6.17471504211,258.595062256,43.4558677673,
1.21377571077,-6.84207010269,256.68447876,43.2115745544,
1.22267745181,-7.82864284515,253.552474976,42.1885681152,
1.2320725865,-8.89345169067,248.691467285,41.0800132751,
1.23971269231,-9.86986637115,241.28855896,39.9324302673,
1.24961354717,-10.7804374695,231.517700195,38.9271736145,
1.25716170386,-11.5137042999,219.174682617,38.8188362122,
1.26586788644,-12.0532302856,205.13911438,40.0364646912,
1.27480360867,-12.327870369,189.893844604,42.6776924133,
1.28380629385,-12.3569831848,174.631072998,46.5628929138,
1.29216966612,-12.2179145813,160.902206421,51.5763397217,
1.30094614313,-12.0949363708,149.56300354,56.8315200806,
1.30953439097,-12.0220022202,142.564208984,62.568649292,
1.31899282397,-11.9902706146,138.254104614,68.770401001,
1.32825569851,-11.6691522598,135.452331543,73.6957092285,
1.33569025139,-11.3720293045,136.061233521,77.2671356201,
1.34433613401,-11.0895643234,137.26133728,78.7216110229,
1.35347441083,-10.7956104279,138.374801636,76.4124984741,
1.36143600541,-10.7729492188,142.400482178,72.6913452148,
1.3701551808,-11.0772972107,148.73449707,67.4535140991,
1.37866813696,-11.7481575012,157.45791626,60.9601860046,
1.38781840715,-12.7495698929,168.408493042,54.0410957336,
1.39569105095,-13.9339551926,181.092834473,47.4734687805,
1.40479601287,-15.1312789917,195.352935791,42.0897712708,
1.41344889161,-16.1975364685,209.652709961,38.2928466797,
1.42409633336,-16.9130172729,222.504669189,36.4886245728,
1.43107214008,-17.2354602814,233.537109375,36.1764755249,
1.44018010034,-17.0533599854,242.653411865,37.1653823853,
1.44798178341,-16.5696849823,250.2215271,38.1778869629,
1.45721634029,-15.650560379,255.314941406,39.4890594482,
1.46524090004,-14.4195146561,258.21762085,40.6545524597,
1.47395907598,-13.1567192078,260.429870605,41.2872543335,
1.48264227128,-12.0721912384,261.368896484,41.5623283386,
1.49185284143,-11.384147644,261.379638672,41.6767730713,
1.4993546904,-11.0239143372,260.425750732,41.5390472412,
1.50945310262,-10.939084053,257.82208252,41.0012130737,
1.51717916086,-11.1029920578,254.285903931,39.7228889465,
1.52657496185,-11.4203176498,249.129837036,38.5083847046,
1.53617098539,-11.940829277,241.881393433,37.1564674377,
1.54331969643,-12.5270748138,232.421188354,36.504119873,
1.55207984915,-13.1320285797,221.114654541,36.6075515747,
1.56129475024,-13.540178299,208.240982056,37.7847938538,
1.56921803269,-13.6612501144,194.365112305,40.1268501282,
1.57805480967,-13.4920501709,180.754974365,43.5121994019,
1.5869252347,-13.0276575089,168.114974976,47.531047821,
1.59629571637,-12.3324575424,157.686813354,51.8677482605,
1.60402443981,-11.4872283936,149.341888428,55.8616409302,
1.61330763644,-10.6432504654,143.362838745,59.2979240417,
1.62160404576,-9.9185552597,139.850952148,61.9088287354,
1.63214254779,-9.45558452606,138.673736572,63.2554359436,
1.63941519026,-9.3806180954,139.713546753,63.1872787476,
1.64818167281,-9.83923816681,142.924224854,61.7350616455,
1.65647608323,-10.786491394,147.757110596,58.9407348633,
1.66606844213,-12.0773839951,154.153106689,55.1761665344,
1.67397306824,-13.555480957,162.128540039,50.7960472107,
1.68213122072,-15.0202970505,171.441238403,46.4343605042,
1.69104662087,-16.3288383484,181.644729614,42.4113426208,
1.69999466962,-17.2746810913,191.946578979,38.9997596741,
1.708186137,-17.6526813507,201.820632935,36.2794914246,
1.71734107127,-17.396074295,210.965209961,34.1865997314,
1.72539428183,-16.553478241,219.599563599,32.8208198547,
1.73479508006,-15.1602716446,227.258865356,32.1857948303,
1.74415323521,-13.4300823212,233.944702148,31.9541187286,
1.75117268445,-11.6067466736,239.563720703,32.1313858032,
1.76032961761,-9.80507183075,244.389297485,32.4743309021,
1.76954118721,-8.228723526,248.508026123,32.8239059448,
1.77718095987,-6.89323711395,251.58001709,33.5584259033,
1.78612167934,-5.91693925858,254.054885864,34.3035926819,
1.79465395814,-5.38420963287,256.040893555,34.8551139832,
1.80408174144,-5.16522979736,257.071166992,35.3588676453,
1.81217226468,-5.16689586639,257.122955322,35.5853614807,
1.82039871271,-5.43756484985,256.289154053,35.722946167,
1.82977652366,-6.02054595947,254.867889404,35.4353866577,
1.84033867926,-6.84811067581,252.541717529,34.9065551758,
1.84703397453,-7.83853340149,248.596557617,34.1706619263,
1.8561895751,-8.93419456482,243.099075317,33.3914222717,
1.86402423992,-9.95432376862,235.54107666,32.6262893677,
1.873556632,-10.8236284256,225.515686035,32.18567276,
1.88145792661,-11.3604021072,212.811584473,32.7678146362,
1.89018543073,-11.4806852341,198.146896362,34.6624794006,
1.89878800397,-11.1788768768,182.270050049,38.0788879395,
1.90896237415,-10.585603714,166.344955444,42.8300018311,
1.91687199749,-9.77947807312,152.423492432,48.526725769,
1.92581438271,-8.91873455048,141.454086304,54.3534660339,
1.93424571737,-7.96677398682,133.910369873,59.9604377747,
1.94305984022,-6.91689062119,131.000915527,66.5718536377,
1.95213182039,-5.98867034912,129.930404663,71.5042648315,
1.95991551342,-5.70862436295,130.267333984,73.7367248535,
1.96869898656,-5.89488697052,132.369491577,72.4164505005,
1.9953459086,-8.64692306519,149.740112305,60.7921142578,
2.00358834778,-10.950756073,160.422515869,52.3459587097,
2.01172751078,-13.0152339935,172.10874939,44.7589759827,
2.0204536823,-14.7296123505,185.151687622,38.3229446411,
2.02980084353,-15.9760532379,197.988021851,33.4371185303,
2.03772945637,-16.7714004517,210.108718872,30.2872028351,
2.04647861517,-16.9280910492,220.079605103,28.6816749573,
2.05454648428,-16.4939975739,228.655715942,27.8459835052,
2.06426543979,-15.4094266891,235.122787476,27.9575767517,
2.07226201502,-13.873415947,239.837188721,28.2388572693,
2.08128935322,-12.1138706207,243.284240723,28.6811847687,
2.08895411206,-10.3605556488,245.660720825,28.9939613342,
2.09905618891,-8.87223911285,247.461303711,29.4090671539,
2.10730462477,-7.86887550354,248.591339111,29.919593811,
2.11570764177,-7.51555871964,248.639343262,29.9352207184,
2.12443248069,-7.64361953735,247.51663208,30.0220241547,
2.13393255732,-8.01269340515,245.22756958,29.9712028503,
2.14122318983,-8.49230003357,241.713867188,29.5292491913,
2.15028550869,-9.04002666473,236.239379883,28.9223976135,
2.16025232705,-9.61736106873,228.833496094,28.8422431946,
2.16805634216,-10.1738471985,219.523712158,29.2976818085,
2.17631443934,-10.5065927505,208.439758301,30.8975715637,
2.18500129928,-10.5522508621,196.279434204,33.7680053711,
2.19339732015,-10.2128639221,183.470153809,37.7594299316,
2.20302166135,-9.37298297882,170.41506958,42.7661590576,
2.211669876,-8.16658306122,158.656692505,48.4582710266,
2.22059227228,-6.81093025208,148.885940552,54.0918731689,
2.22900461745,-5.42492675781,142.71005249,59.7853622437,
2.24021941193,-4.19189453125,139.121917725,65.8989562988,
2.24678944317,-3.06224179268,137.187362671,70.8539047241,
2.25629485018,-2.32848882675,136.417831421,74.1648483276,
2.26423678898,-2.15487265587,136.760803223,75.5648956299,
2.27300193893,-1.59699177742,141.265686035,76.3746032715,
2.2812660328,-2.57018947601,142.263626099,72.1438217163,
2.29006116615,-3.87872862816,145.716430664,66.8558425903,
2.2977559084,-5.47393703461,151.267364502,60.4857597351,
2.30752916719,-7.20424604416,158.712158203,53.6327590942,
2.31552074519,-8.9652633667,167.94229126,46.8212089539,
2.32375785399,-10.6459522247,178.710891724,40.6422080994,
2.33253932824,-12.2150783539,190.55897522,35.2707901001,
2.34219931638,-13.6535177231,202.943664551,31.1768493652,
2.34972781727,-14.8698348999,215.191070557,28.7514190674,
2.35836703691,-15.7648468018,226.289932251,27.882566452,
2.36814329404,-16.1918373108,235.552444458,28.0410709381,
2.37634708794,-16.0042285919,242.418945312,28.8541965485,
2.38439196978,-15.2418994904,247.078964233,29.9355049133,
2.39342563781,-14.0311117172,249.766311646,30.8173999786,
2.40181199736,-12.7573852539,251.306167603,31.4764575958,
2.41109086306,-11.8055047989,252.194381714,31.9152736664,
2.41919471226,-11.2966461182,252.215881348,32.2480201721,
2.42780794627,-11.0851783752,251.655914307,32.3518981934,
2.43651845979,-11.0544347763,249.786895752,32.2030601501,
2.44627772632,-11.1876115799,247.041809082,31.9210262299,
2.45395980891,-11.5305337906,243.211456299,31.526802063,
2.46256438104,-11.9813098907,237.706985474,31.155790329,
2.47140282377,-12.4451618195,230.424758911,30.8958778381,
2.48061372707,-12.6413259506,220.615447998,31.3697795868,
2.48841607644,-12.6030740738,209.225692749,32.7826309204,
2.49738544672,-12.1828298569,196.53086853,35.4509468079,
2.50596603213,-11.3297262192,183.138442993,39.2476768494,
2.51528953979,-10.2529401779,170.116790771,43.9396972656,
2.52388211856,-9.05318832397,158.46836853,49.2331466675,
2.53261561936,-7.96630001068,148.834747314,54.496963501,
2.54125050805,-7.07552099228,142.637390137,59.7368392944,
2.55091182879,-6.37545204163,137.280929565,63.9841918945,
2.56027364858,-5.83204174042,134.904449463,69.3286437988,
2.56709487417,-5.19221448898,133.431106567,73.5623931885,
2.57626080236,-4.54445314407,132.655426025,76.7956314087,
2.5850456081,-4.21147203445,132.592544556,78.6027450562,
2.59321342191,-4.39101934433,133.393585205,78.8577041626,
2.60199389671,-4.92323112488,134.581756592,76.2807159424,
2.61036326566,-5.78573417664,136.993118286,72.5554046631,
2.61923335754,-6.97500419617,141.176010132,67.8768081665,
2.6280284909,-8.54473876953,147.07585144,62.1582832336,
2.63583117342,-10.3589115143,154.664459229,55.9427909851,
2.64474091003,-12.2536373138,163.822647095,49.5110244751,
2.65364731515,-14.1206693649,174.721038818,43.2441711426,
2.66224622376,-15.8519353867,186.854873657,37.5805168152,
2.67066556505,-17.2286281586,199.479660034,33.1465606689,
2.67950400778,-18.132068634,211.564544678,30.3256912231,
2.68876754862,-18.4565315247,222.350845337,28.9890480042,
2.6966651786,-18.0842876434,231.325637817,28.4445781708,
2.7058284416,-16.9701576233,238.061813354,28.5757656097,
2.71406654984,-15.384355545,242.67048645,28.9261837006,
2.72315918525,-13.6916894913,245.995071411,29.2769069672,
2.73161284089,-12.1252737045,248.856674194,29.4506645203,
2.73993989992,-10.7185087204,250.181854248,30.1075077057,
2.74853214555,-9.60956478119,250.86517334,30.6003932953,
2.7581724779,-8.77047538757,251.074584961,30.4912757874,
2.76594750904,-8.11389350891,250.489852905,30.4345397949,
2.77458906072,-7.76074981689,248.677032471,30.0156154633,
2.78438097586,-7.78034925461,245.935150146,29.4269275665,
2.79273868459,-8.07665348053,242.322860718,28.7100753784,
2.80063331623,-8.67670440674,237.392715454,27.9835395813,
2.80939680044,-9.44680404663,230.675796509,27.3282871246,
2.81765456447,-10.135263443,221.629074097,26.93227005,
2.82710933284,-10.5574445724,210.548568726,27.2296962738,
2.83538042283,-10.6396627426,197.642837524,28.6764793396,
2.84433380196,-10.2509632111,183.008377075,31.7486763,
2.8533668037,-9.51232814789,167.94821167,36.3089370728,
2.86414184151,-8.49771595001,153.638259888,42.1299476624,
2.87072919651,-7.34491920471,141.163009644,48.6076774597,
2.88018429802,-6.31536960602,132.449020386,55.2921104431,
2.88854267305,-5.19795560837,127.595977783,63.0112342834,
2.96701425211,-9.32749557495,140.749298096,54.5554084778,
2.97620549962,-10.7868938446,146.096099854,50.7929725647,
2.98296975673,-12.4328451157,153.057113647,46.5627250671,
2.99241486378,-14.1157951355,161.595108032,42.2089920044,
3.00132293464,-15.7056131363,171.744750977,38.1181488037,
3.00873616599,-16.9683246613,183.4712677,34.6140022278,
3.01785845166,-17.7126979828,196.50151062,31.9086532593,
