Time (ms),Position Data for Clock Game(mm)
,x,y,z
3164.101,22.0864543915,98.5089035034,128.519943237,
3172.797,21.6699104309,99.8292160034,126.803291321,
3181.492,21.1969566345,101.466674805,124.890815735,
3190.188,20.6201305389,103.442703247,122.589881897,
3198.883,20.0273532867,105.655540466,120.039390564,
3207.579,19.4136428833,108.069625854,117.370239258,
3216.275,18.811340332,110.553382874,114.681495667,
3224.97,18.2167015076,113.121047974,111.96434021,
3233.666,17.6141967773,115.713394165,109.215507507,
3242.361,16.978509903,118.316215515,106.578796387,
3251.057,16.295085907,120.869773865,104.132827759,
3259.753,15.535525322,123.452011108,101.772468567,
3268.448,14.7228517532,126.030761719,99.5014648438,
3277.144,13.9314861298,128.724838257,97.3587493896,
3285.839,13.1575918198,131.374023438,95.3776168823,
3294.535,12.3665704727,134.077331543,93.5041809082,
3303.231,11.5411787033,136.832275391,91.8339309692,
3311.926,10.7119035721,139.564666748,90.3248062134,
3320.622,9.84870243073,142.297180176,88.9183807373,
3329.317,8.93910884857,145.043869019,87.7549819946,
3338.013,8.00879192352,147.830123901,86.7525177002,
3364.1,5.82963180542,154.244186401,84.3742218018,
3372.795,4.56188440323,157.439666748,83.5675125122,
3381.491,3.49463558197,160.249221802,82.8790283203,
3390.187,2.55812358856,162.782104492,82.2703933716,
3398.882,1.72885906696,165.130645752,81.6831054688,
3407.578,0.931046068668,167.539474487,81.1786499023,
3416.273,0.138754472136,169.835632324,80.7437973022,
3424.969,-0.660914063454,172.086257935,80.3447723389,
3433.665,-1.5008020401,174.356170654,80.0717010498,
3442.36,-2.383071661,176.582015991,79.7539901733,
3451.056,-3.30609321594,178.829406738,79.5992431641,
3459.751,-4.27913951874,180.885742188,79.4094161987,
3468.447,-5.2557091713,182.755767822,79.1785507202,
3477.143,-6.22875833511,184.399810791,78.8369140625,
3485.838,-7.16069984436,186.054016113,78.6722488403,
3494.534,-8.06756401062,187.651321411,78.3744125366,
3503.229,-8.9401216507,189.363708496,78.1800460815,
3511.925,-9.79571628571,191.065597534,78.0176544189,
3520.621,-10.6509428024,192.610473633,77.7280807495,
3529.316,-11.5100660324,194.219085693,77.5207138062,
3538.012,-12.3795175552,195.549407959,77.2388839722,
3546.707,-13.2932634354,196.906311035,76.9105529785,
3555.403,-14.2582082748,198.369659424,76.8384094238,
3564.099,-15.2550725937,199.609542847,76.6468505859,
3572.794,-16.3380012512,201.016189575,76.4666061401,
3581.49,-17.4585418701,202.22718811,76.3132553101,
3590.185,-18.6391639709,203.531433105,76.177734375,
3598.881,-19.8110599518,204.83215332,76.0542602539,
3607.577,-20.9282722473,205.867218018,75.9779281616,
3616.272,-22.0298862457,206.970626831,75.8792037964,
3624.968,-23.103105545,208.108047485,75.6536941528,
3633.663,-24.1509494781,209.336181641,75.5347976685,
3642.359,-25.1908721924,210.502120972,75.4832077026,
3651.055,-26.2291870117,211.865524292,75.4323348999,
3659.755,-27.294708252,213.306610107,75.389793396,
3668.456,-28.3950691223,214.678787231,75.4233856201,
3677.156,-29.5391082764,216.074935913,75.3211364746,
3685.857,-30.7282505035,217.424331665,75.5039749146,
3694.558,-31.996471405,218.781143188,75.7099914551,
3703.258,-33.2972373962,220.144729614,75.9076538086,
3711.959,-34.6199531555,221.467941284,76.1713790894,
3720.659,-36.0014419556,223.162231445,76.3684997559,
3729.36,-37.2661743164,224.536727905,76.6846466064,
3738.061,-38.5692405701,226.151077271,77.1062164307,
3746.761,-39.8908004761,227.810424805,77.2574539185,
3755.462,-41.2696685791,229.6693573,77.1648712158,
3764.162,-42.5137710571,231.246856689,77.7326812744,
3772.863,-43.8201599121,232.867858887,77.8366317749,
3781.564,-45.1264724731,234.56602478,78.4323959351,
3790.264,-46.5044136047,236.244338989,78.5051193237,
3798.965,-47.8734436035,237.932006836,79.0851898193,
3807.665,-49.2007713318,239.40222168,79.720123291,
3816.366,-50.6309356689,241.107147217,79.9644393921,
3825.067,-51.9400405884,242.466491699,80.5609893799,
3833.767,-53.2627792358,243.866134644,81.1402053833,
3842.468,-54.5453224182,245.368865967,81.9098815918,
3851.168,-55.8610343933,246.954269409,82.4711456299,
3859.869,-57.0386352539,248.332443237,83.1179656982,
3868.57,-58.1674003601,249.631958008,83.5038452148,
3877.27,-59.2455215454,250.991363525,84.0916137695,
3885.971,-60.3373146057,252.368240356,84.6471786499,
3894.671,-61.3491783142,253.714599609,85.1853866577,
3903.372,-62.3322525024,254.947479248,85.3546447754,
3912.073,-63.2325744629,256.144836426,85.9432678223,
3920.773,-64.0445327759,257.068603516,86.3981323242,
3929.474,-64.9511795044,258.089080811,86.6994171143,
3938.174,-65.7843475342,258.953613281,87.2995605469,
3946.875,-66.602684021,259.674560547,87.6488418579,
3955.576,-67.4994354248,260.710205078,88.1353149414,
3964.276,-68.3809509277,261.469146729,88.0597305298,
3972.977,-69.1032791138,262.073272705,88.7026824951,
3981.677,-69.881477356,262.983398438,89.3744277954,
3990.378,-70.4828796387,263.446380615,89.7717285156,
3999.079,-71.1480865479,264.235748291,89.9948883057,
4007.779,-71.6982421875,264.833862305,90.1821594238,
4016.48,-72.3324813843,265.680053711,90.4241943359,
4025.18,-72.878616333,266.347717285,90.7175369263,
4033.881,-73.4535446167,266.940643311,90.9825439453,
4042.582,-74.0258102417,267.683074951,91.3577575684,
4051.282,-74.5141830444,268.202575684,91.8366699219,
4059.983,-75.0659561157,268.88092041,92.1970825195,
4068.683,-75.5294876099,269.389801025,92.546295166,
4077.384,-76.05027771,270.00289917,92.8531036377,
4086.085,-76.4568634033,270.565490723,93.3088531494,
4094.785,-77.0017700195,271.410949707,93.6026535034,
4103.486,-77.4668426514,272.096038818,94.006477356,
4112.186,-77.8093795776,272.291992188,94.2308578491,
4120.887,-78.2673568726,272.7762146,94.6069412231,
4129.588,-78.7208709717,273.088439941,94.6472930908,
4138.288,-79.1318511963,273.29473877,94.9147338867,
4146.989,-79.6517486572,273.937286377,95.4980239868,
4155.689,-80.1736907959,274.445220947,95.6942062378,
4164.39,-80.7542648315,274.97869873,95.6487350464,
4173.091,-81.2877044678,275.593109131,95.7128219604,
4181.791,-81.5654983521,275.785430908,95.9585723877,
4190.492,-81.9130935669,276.46472168,96.248878479,
4199.192,-82.1406326294,276.889434814,96.5205612183,
4207.893,-82.4161758423,277.428894043,96.7464370728,
4216.594,-82.5061187744,277.636688232,97.001411438,
4225.294,-82.6156616211,277.884338379,97.1174545288,
4233.995,-82.9166030884,278.441497803,96.9955291748,
4242.695,-83.1050949097,278.701416016,97.2190628052,
4251.396,-83.2773971558,278.915618896,97.3738861084,
4260.097,-83.4563293457,279.040313721,97.6273345947,
4268.797,-83.6246032715,279.126953125,97.8119506836,
4277.498,-83.7015228271,278.944671631,98.0535964966,
4286.198,-83.7869873047,278.853912354,98.3115005493,
4294.899,-83.8448867798,278.709716797,98.4780807495,
4303.6,-83.9697875977,278.736114502,98.634513855,
4312.3,-84.2134780884,278.959320068,98.3257217407,
4321.001,-84.2629547119,279.007080078,98.6943283081,
4329.701,-84.3440246582,279.104736328,98.8875350952,
4338.402,-84.4343490601,279.224273682,99.0683288574,
4347.103,-84.325630188,278.78515625,99.2098770142,
4355.803,-84.4817886353,278.795654297,98.9380340576,
4364.504,-84.4968566895,278.720275879,99.005531311,
4373.204,-84.5758895874,278.724639893,99.0516738892,
4381.905,-84.552734375,278.694854736,99.2043380737,
4390.606,-84.477355957,278.536376953,99.1520385742,
4399.306,-84.2732162476,278.270202637,99.0712890625,
4408.007,-83.9377746582,277.771942139,98.9658966064,
4416.707,-83.8130340576,277.83303833,98.6145324707,
4425.408,-83.4984970093,277.593414307,98.6446228027,
4434.109,-83.2970504761,277.817779541,98.576751709,
4442.809,-82.9288711548,277.463500977,98.4263916016,
4468.911,-82.4922332764,277.043212891,98.1965713501,
4477.612,-82.1170196533,276.84375,97.9712600708,
4486.312,-81.8632125854,276.7371521,97.484046936,
4495.013,-81.5028381348,276.391052246,97.4041290283,
4503.713,-81.3831634521,276.421234131,96.8650283813,
4512.414,-81.1017532349,276.248504639,96.8977890015,
4521.115,-80.7965087891,276.002593994,96.7926712036,
4529.815,-80.5448684692,275.897674561,96.7535171509,
4538.516,-80.2891387939,275.725494385,96.4890213013,
4547.216,-79.9275512695,275.3878479,96.3611068726,
4555.917,-79.5101242065,274.92565918,96.2342224121,
4564.618,-79.168762207,274.878753662,96.0178833008,
4573.318,-78.6716308594,274.556152344,95.818572998,
4582.019,-78.1569213867,274.264648438,95.5014724731,
4590.719,-77.4497909546,273.653137207,95.3137359619,
4599.42,-76.8754806519,273.557830811,95.049369812,
4608.121,-76.1633605957,273.416351318,94.606842041,
4616.821,-75.2722702026,272.961700439,94.2710571289,
4625.522,-74.3966217041,272.930175781,93.9106826782,
4634.222,-73.4180755615,272.87713623,93.4456558228,
4642.923,-72.372756958,272.834503174,92.7437744141,
4651.624,-71.1577682495,272.885559082,92.2691726685,
4660.324,-69.8379440308,272.777374268,91.672958374,
4669.025,-68.407371521,272.75567627,91.0779495239,
4677.725,-66.8510971069,272.659118652,90.2590255737,
4686.426,-65.1962814331,272.669464111,89.5500717163,
4695.127,-63.4037437439,272.657226562,88.6908493042,
4703.827,-61.5503120422,272.931182861,88.1436538696,
4712.528,-59.3989562988,272.645294189,87.1658706665,
4721.228,-57.0933952332,272.745697021,86.3967132568,
4729.929,-54.5967903137,272.632720947,85.3948364258,
4738.63,-51.9802589417,272.675048828,84.4280166626,
4747.33,-49.3379898071,272.754974365,83.1969299316,
4756.031,-46.6766204834,273.183776855,82.2495498657,
4764.731,-43.9851341248,273.479644775,81.3047637939,
4773.432,-41.0968208313,273.605316162,80.3576126099,
4782.133,-38.0360145569,273.57901001,79.1901092529,
4790.833,-34.8870887756,273.590545654,78.138633728,
4799.534,-31.6333427429,273.597259521,76.9510726929,
4808.234,-28.2640151978,273.660583496,75.7701797485,
4816.935,-24.7451171875,273.556030273,74.3453369141,
4825.636,-21.0061244965,273.724822998,73.2826843262,
4834.336,-17.2303752899,274.050109863,72.1006546021,
4843.037,-13.2804307938,274.32434082,70.8203277588,
4851.737,-9.26158046722,274.549346924,69.5942077637,
4860.438,-5.14952230453,274.799987793,68.5176239014,
4869.139,-0.914290070534,275.096984863,67.2966690063,
4877.839,3.38082575798,275.402435303,66.0504074097,
4886.54,7.65684556961,275.715393066,64.7663040161,
4895.24,11.9060583115,276.161224365,63.5609436035,
4903.941,16.057352066,276.374633789,62.6306152344,
4912.642,20.1566696167,276.363098145,61.4872627258,
4921.342,24.2552719116,276.583526611,60.4095954895,
4930.043,28.341835022,276.722839355,59.4463539124,
4938.743,32.4314002991,277.084350586,58.3896751404,
4947.444,36.4813232422,277.38394165,57.3554229736,
4956.145,40.4779968262,277.353637695,56.4723358154,
4964.845,44.4747276306,277.760742188,55.3134498596,
4973.546,48.2618331909,277.515899658,54.4199485779,
4982.246,52.0382461548,277.684356689,53.6619262695,
4990.947,55.6994247437,277.612121582,52.719871521,
4999.648,59.2761268616,277.825073242,51.9863510132,
5008.348,62.7395591736,277.923156738,51.1049537659,
5017.049,66.2307281494,278.32409668,50.3319625854,
5025.749,69.6075973511,278.561645508,49.4039649963,
5034.45,72.8202438354,278.608154297,48.7690391541,
5043.151,76.0040054321,278.756072998,48.0558166504,
5051.851,79.0992355347,278.886260986,47.5075912476,
5060.552,82.0658721924,278.767608643,46.8236846924,
5069.252,84.8606491089,278.442443848,46.0726470947,
5077.953,87.8047943115,278.803161621,45.643081665,
5086.654,90.5993728638,278.803283691,44.996421814,
5095.354,93.3237228394,278.831420898,44.4727554321,
5104.055,95.9979934692,279.023010254,44.1229820251,
5112.755,98.5007476807,278.856445312,43.5601844788,
5121.456,100.873542786,278.63659668,43.2142562866,
5130.157,103.220321655,278.404296875,42.7064399719,
5138.857,105.640258789,278.451782227,42.2206993103,
5147.558,107.89201355,278.11315918,41.7320632935,
5156.258,110.161804199,277.97668457,41.4138641357,
5164.959,112.658477783,278.097747803,40.870967865,
5173.66,114.993270874,278.071044922,40.3841400146,
5182.36,117.269340515,278.115142822,40.0222244263,
5191.061,119.345031738,277.826477051,39.7593345642,
5199.761,121.452438354,277.689239502,39.4699478149,
5208.462,123.425979614,277.445373535,39.1163825989,
5217.163,125.63469696,277.650726318,38.8564758301,
5225.863,127.73575592,277.802001953,38.6090202332,
5234.564,129.819213867,277.754974365,37.6210327148,
5243.264,131.643539429,277.617431641,37.4284820557,
5251.965,133.422866821,277.510498047,37.1985359192,
5260.666,135.178985596,277.527801514,36.9358177185,
5269.366,136.667648315,277.358886719,36.8636169434,
5278.067,138.161239624,277.079345703,36.5631637573,
5286.767,139.600418091,276.878662109,36.3407783508,
5295.468,141.176208496,277.143920898,36.1244125366,
5304.169,142.68913269,277.303253174,35.8719291687,
5312.869,144.243011475,277.620300293,35.6625862122,
5321.57,145.641967773,277.930114746,35.6131820679,
5330.27,146.937744141,278.134918213,35.5684814453,
5338.971,148.031936646,278.06036377,35.5226211548,
5347.672,149.000686646,277.927459717,35.4301223755,
5356.372,150.146209717,278.316131592,35.3941650391,
5365.073,150.930862427,278.245391846,35.4410324097,
5373.773,151.6849823,278.164581299,35.4164505005,
5382.474,152.585372925,278.504943848,35.4015083313,
5391.175,153.16998291,278.440155029,35.47681427,
5399.875,153.77154541,278.518615723,35.5273971558,
5408.576,154.52494812,278.928649902,35.5240592957,
5417.276,154.927520752,278.872741699,35.5842971802,
5425.977,155.18031311,278.802276611,35.7485351562,
5434.678,155.63508606,279.085235596,35.8481674194,
5443.378,155.772232056,278.926361084,35.9394569397,
5452.079,156.045623779,279.057495117,35.9836120605,
5460.779,156.19380188,279.034545898,36.0284004211,
5469.48,156.431381226,279.218536377,35.9376907349,
5478.181,156.544967651,279.367736816,35.9911460876,
5486.881,156.655334473,279.56552124,35.8870620728,
5495.582,156.623626709,279.577667236,35.8772392273,
5504.282,156.596130371,279.684204102,36.0195083618,
5512.983,156.498092651,279.542388916,35.990852356,
5521.684,156.61958313,279.748504639,35.6918716431,
5530.384,156.289001465,279.235168457,35.716255188,
5539.085,155.990905762,278.804504395,35.7907943726,
5547.785,155.942306519,278.878692627,35.8884506226,
5573.887,156.170684814,278.453643799,35.9264717102,
5582.588,155.584671021,278.345153809,35.6199111938,
5591.288,155.081604004,278.378326416,35.9533004761,
5599.989,154.482345581,277.897155762,35.9650840759,
5608.69,153.984313965,277.710601807,36.1271362305,
5617.39,153.503875732,277.311004639,36.1209564209,
5626.091,153.219589233,277.394012451,36.0566062927,
5634.791,152.817077637,277.262908936,36.0935058594,
5643.492,152.444778442,277.188903809,36.0685272217,
5652.193,152.093063354,277.131988525,35.9594573975,
5660.893,151.488189697,276.740936279,36.0338172913,
5669.594,150.999832153,276.508148193,36.0407485962,
5678.294,150.581451416,276.275756836,35.9392738342,
5686.995,150.289459229,276.392791748,35.964263916,
5695.696,149.736755371,275.876312256,35.9608726501,
5704.396,149.24961853,275.437866211,35.5926780701,
5713.097,148.74180603,275.100646973,35.6321563721,
5721.797,148.368438721,274.899261475,35.6811676025,
5730.498,148.183120728,274.935760498,35.6506462097,
5739.199,147.825958252,274.724304199,35.7257957458,
5747.899,147.448562622,274.372558594,35.7087364197,
5756.6,147.233169556,274.223968506,35.5515441895,
5765.3,147.026992798,274.045532227,35.5550842285,
5774.001,146.770477295,273.737457275,35.3864097595,
5782.702,146.528671265,273.502960205,35.3323822021,
5791.402,146.294433594,273.275604248,35.264919281,
5800.103,146.014816284,272.961181641,35.233959198,
5808.803,145.868743896,272.785522461,35.0091934204,
5817.504,145.813674927,272.851593018,35.0253067017,
5826.205,145.636474609,272.663635254,35.0616836548,
5834.905,145.698806763,272.63079834,34.8743019104,
5843.606,145.594161987,272.556335449,34.8749275208,
5852.306,145.680511475,272.68939209,34.7355270386,
5861.007,145.655227661,272.757568359,34.7336959839,
5869.708,145.692123413,272.813781738,34.7217750549,
5878.408,145.567703247,272.649108887,34.7397499084,
5887.109,145.64491272,272.722717285,34.5749435425,
5895.809,145.682006836,272.860656738,34.5981483459,
5904.51,145.753662109,273.075073242,34.6316413879,
5913.211,145.901412964,273.413116455,34.7092285156,
5921.911,145.802841187,273.490386963,34.8129386902,
5930.612,145.811294556,273.810821533,35.0031356812,
5939.312,145.885009766,274.290527344,35.2016487122,
5948.013,145.964614868,274.726318359,35.4147720337,
5956.714,145.917114258,274.984924316,35.4622268677,
5965.414,145.808227539,275.101928711,35.6268234253,
5974.115,145.785812378,275.400054932,35.7783546448,
5982.815,145.781448364,275.636871338,35.8059310913,
5991.516,145.823150635,275.886047363,35.733379364,
6000.217,145.872329712,276.131286621,35.6243400574,
6008.917,146.155731201,276.779754639,35.6392402649,
6017.618,146.134277344,276.918884277,35.6677360535,
6026.318,146.063980103,276.926055908,35.8364639282,
6035.019,146.128753662,277.250152588,35.8770179749,
6043.72,146.054016113,277.396575928,36.1224365234,
6052.42,145.927352905,277.309295654,36.2402763367,
6061.121,145.664031982,277.137115479,36.3738517761,
6069.821,145.42729187,277.014251709,36.5196380615,
6078.522,145.200515747,276.996002197,36.5970611572,
6087.223,144.661026001,276.562042236,36.7849655151,
6095.923,143.986633301,275.999633789,36.971824646,
6104.624,143.156555176,275.115325928,36.9029502869,
6113.324,142.362014771,274.448272705,36.8312454224,
6122.025,141.160903931,273.381652832,37.0847206116,
6130.726,139.672515869,271.960205078,37.2187004089,
6139.426,138.072158813,270.590057373,37.4627609253,
6148.127,136.35345459,269.154083252,37.5770187378,
6156.827,134.365570068,267.450256348,37.7124481201,
6165.528,132.589508057,266.422363281,37.9879379272,
6174.229,130.486190796,264.866790771,38.0300559998,
6182.929,128.302978516,263.439849854,38.1333007812,
6191.63,125.936569214,262.030059814,38.3973999023,
6200.33,123.460174561,260.670562744,38.5139770508,
6209.031,120.876411438,259.552947998,38.8370513916,
6217.732,118.134483337,258.326202393,39.0849494934,
6226.432,115.283103943,257.150726318,39.1804466248,
6235.133,112.397232056,256.356842041,39.4549598694,
6243.833,109.379951477,255.435165405,39.6774520874,
6252.534,106.176643372,254.708602905,40.1190872192,
6261.235,102.679283142,253.853240967,40.4861602783,
6269.935,98.9542541504,253.067459106,40.8297348022,
6278.636,94.8775939941,252.221084595,41.3264083862,
6287.336,90.7842407227,252.001159668,41.9658126831,
6296.037,86.501373291,251.625473022,42.5507011414,
6304.738,82.1157073975,251.417602539,43.3237037659,
6313.438,77.5769500732,251.045822144,44.0900154114,
6322.139,72.9122619629,250.777145386,45.0197868347,
6330.839,68.3022842407,250.836776733,45.6751556396,
6339.54,63.5881843567,250.797393799,46.6488304138,
6348.241,58.786491394,250.638290405,47.587436676,
6356.941,54.0136947632,250.588867188,48.7208251953,107.849159241,243.475662231,121.911712646,
6365.642,49.2611160278,250.681869507,49.8039588928,104.999511719,243.25553894,122.017555237,
6374.342,44.5737113953,251.141433716,51.0295639038,102.105079651,242.987731934,121.994049072,
6383.043,39.9321403503,251.715789795,52.3667297363,98.92918396,242.37828064,122.103439331,
6391.744,35.264503479,252.054397583,53.6187591553,95.6000137329,241.748703003,122.458763123,
6400.444,30.5769672394,252.342926025,54.824382782,
6409.145,25.9975318909,252.644973755,56.1586914062,
6417.845,21.545627594,253.175827026,57.7149658203,
6426.546,17.2091064453,253.478103638,58.8972511292,
6435.247,13.0467042923,254.183181763,60.2747077942,
6443.947,9.02921962738,254.719848633,61.679523468,
