Time (ms),Position Data for Clock Game(mm)
,x,y,z
5865.486,-18.1090869904,161.630905151,194.336242676,
5874.182,-18.5459899902,162.211791992,194.025115967,
5909.667,-19.1207027435,164.565216064,192.04019165,
5918.363,-19.4939842224,166.554672241,190.257171631,
5927.058,-19.7901382446,168.403717041,188.78956604,
5935.754,-19.962305069,170.241653442,187.426849365,
5944.449,-20.0866699219,172.010116577,186.13142395,
5953.145,-20.170797348,173.71307373,184.956268311,
5961.841,-20.1206531525,175.406646729,183.534866333,
5970.536,-20.1150226593,176.940078735,182.348098755,
5979.232,-20.0858306885,178.519622803,181.195846558,
5987.927,-20.042678833,179.97177124,179.931167603,
5996.623,-19.9072246552,181.36390686,178.586410522,
6005.319,-19.8090076447,182.603424072,177.476867676,
6014.014,-19.6101646423,183.765396118,176.258834839,
6022.71,-19.337890625,184.853408813,175.121765137,
6031.405,-19.0108509064,186.068008423,174.152908325,
6040.101,-18.6120433807,187.266677856,173.100753784,
6048.797,-18.1655216217,188.384613037,172.071182251,
6057.492,-17.7518062592,189.463485718,171.215774536,
6066.188,-17.3576831818,190.71307373,170.480026245,
6074.883,-16.9325466156,191.915206909,169.609008789,
6083.579,-16.5737762451,193.043670654,168.788711548,
6092.275,-16.2278823853,194.123825073,167.916717529,
6100.97,-15.9115419388,195.226989746,167.009078979,
6109.666,-15.624247551,196.522460938,166.241073608,
6118.361,-15.4154148102,197.798141479,165.523208618,
6127.057,-15.2566022873,198.739807129,164.57774353,
6135.753,-15.1949796677,199.740692139,163.746688843,
6144.448,-15.1374588013,200.707382202,162.589523315,-59.5390892029,189.159896851,227.353668213,
6153.144,-15.1769113541,201.386993408,161.577941895,-59.5597572327,189.775970459,226.410171509,
6161.839,-15.1424884796,202.277954102,160.216018677,-59.734588623,190.577270508,225.665100098,
6170.535,-15.258649826,203.007202148,159.286300659,-59.6360855103,190.815979004,224.310668945,
6179.231,-15.4398050308,203.678741455,158.208007812,-59.7945327759,191.492111206,223.10005188,
6187.926,-15.7328948975,204.38621521,157.268264771,-60.0148544312,192.776733398,223.151092529,
6196.622,-16.1313915253,205.167907715,156.2996521,-60.2425231934,193.584228516,222.105895996,
6205.317,-16.6057682037,205.962890625,155.29901123,-60.5638160706,194.726928711,221.712844849,
6214.013,-17.0762023926,206.665985107,154.146652222,-60.766166687,195.551956177,221.028182983,
6222.709,-17.6072902679,207.413772583,153.18800354,-61.0853233337,196.785369873,220.677841187,
6231.404,-18.1996154785,208.130722046,152.40133667,-61.191696167,197.168121338,219.41746521,
6240.1,-18.8652610779,208.850875854,151.574234009,-61.1814498901,198.136947632,218.378952026,
6248.795,-19.5340480804,209.513000488,150.703430176,-61.4263916016,198.70072937,217.631973267,
6257.491,-20.2419223785,210.169616699,150.059280396,-61.9699287415,199.603408813,217.467758179,
6266.187,-20.9074192047,210.802337646,149.263687134,-61.2968482971,199.411499023,216.683670044,
6274.882,-21.6262454987,211.465881348,148.660598755,-61.0641975403,200.394836426,216.074920654,
6283.578,-22.3719367981,212.066955566,147.950592041,-61.8169670105,200.917526245,215.440658569,
6292.273,-23.1638450623,212.488494873,147.233215332,-62.3516578674,201.725128174,214.896881104,
6300.969,-24.01354599,212.807128906,146.720184326,-63.0808868408,202.64704895,215.093017578,
6309.665,-24.9013080597,213.238510132,146.396957397,-63.3429145813,202.345443726,214.120574951,
6318.36,-25.7549705505,213.268966675,145.696517944,-64.2723846436,203.316162109,214.142105103,
6327.056,-26.6493206024,213.483795166,145.099899292,-63.7098808289,203.041107178,213.022949219,
6335.751,-27.6041622162,213.690414429,144.569534302,-63.909778595,203.366546631,212.284942627,
6344.447,-28.5395774841,214.019042969,143.575866699,-65.1435089111,203.814285278,212.229370117,
6370.534,-30.8899517059,214.612579346,142.007705688,-67.2589645386,205.47694397,211.505874634,
6379.229,-32.124256134,214.381652832,141.43371582,-68.4292144775,205.485778809,210.723388672,
6387.925,-33.3059616089,214.381164551,141.187957764,-69.5975341797,205.780212402,210.097763062,
6396.621,-34.3788375854,214.245285034,140.661514282,-70.4207077026,205.664108276,209.84967041,
6405.316,-35.4726448059,214.139328003,140.317642212,-71.4217681885,205.881698608,209.855163574,
6414.012,-36.5526199341,213.999832153,139.772949219,-72.3928375244,205.701171875,208.963134766,
6422.712,-37.6726799011,213.965148926,139.490188599,-72.9478530884,204.92276001,207.758377075,-32.3841094971,157.501068115,212.431594849,
6431.413,-38.8299102783,213.936523438,139.152267456,-73.7161254883,204.981704712,207.612213135,-33.0605125427,156.698928833,212.286315918,
6440.114,-39.9638290405,214.043014526,138.668838501,-74.987121582,205.620559692,207.86265564,-33.7845115662,156.201095581,212.115158081,
6448.814,-41.0970230103,214.058959961,138.315155029,-76.2093048096,206.262069702,207.674209595,-34.5403289795,155.923660278,212.029678345,
6457.515,-42.207244873,213.946060181,137.998428345,-76.9566574097,205.613082886,206.676345825,-35.3353881836,156.064727783,212.511932373,
6466.215,-43.3631134033,214.091827393,137.66885376,-77.7316741943,205.39163208,206.496856689,
6474.916,-44.5261497498,214.185455322,137.120254517,-78.822479248,205.507919312,206.252288818,
6483.617,-45.7518234253,214.436462402,136.768569946,-80.084526062,206.090011597,206.071670532,
6492.317,-46.9837265015,214.488967896,136.588943481,-81.1369018555,206.447387695,206.032318115,
6501.018,-48.2306747437,214.53427124,136.35383606,-82.1305236816,206.435241699,205.684860229,
6509.718,-49.5261611938,214.72555542,136.001922607,-82.456199646,205.166442871,205.506591797,
6518.419,-50.8052215576,214.771118164,135.515304565,-83.4627990723,205.350921631,205.339950562,
6527.12,-52.1169548035,215.003540039,135.233078003,-84.8169250488,205.78125,205.182830811,
6535.82,-53.4206123352,215.278656006,134.948730469,-85.9188842773,205.72227478,204.781997681,
6544.521,-54.709980011,215.570205688,134.460739136,-87.3781585693,206.28503418,204.450927734,
6553.221,-55.9754905701,215.814865112,134.155593872,-88.9604034424,207.060501099,204.645690918,
6561.922,-57.2369537354,215.969955444,134.066925049,-89.9570465088,206.874542236,204.032958984,
6570.623,-58.4047317505,215.997680664,133.669235229,-91.2857208252,207.642959595,204.331039429,
6579.323,-59.5827217102,216.194488525,133.251144409,-92.4911575317,208.136749268,204.604721069,
6588.024,-60.6919631958,216.356689453,132.682220459,
6596.724,-61.7356147766,216.298934937,132.424026489,
6605.425,-62.757144928,216.35244751,131.870758057,
6614.126,-63.7422866821,216.319015503,131.682693481,
6622.826,-64.6444625854,216.095993042,131.31237793,
6631.527,-65.5982894897,216.135726929,130.923034668,
6640.227,-66.4800643921,216.069488525,130.604110718,
6648.928,-67.3662414551,216.001174927,130.356506348,
6657.629,-68.2921295166,215.996582031,129.804336548,
6666.329,-69.260269165,216.060684204,129.536529541,
6675.03,-70.2088699341,216.188232422,129.049789429,
6683.73,-71.1161956787,216.092208862,128.617706299,
6692.431,-72.0937576294,216.276412964,128.374465942,
6701.132,-73.0018844604,216.277130127,127.994407654,
6709.832,-73.839881897,216.086090088,127.365600586,
6718.533,-74.6662597656,215.967651367,127.16734314,
6727.233,-75.5608062744,216.15562439,127.05897522,
6735.934,-76.3597183228,216.180465698,126.566352844,
6744.635,-77.1524963379,216.146850586,126.277099609,
6753.335,-77.9763793945,216.251190186,125.985366821,
6762.036,-78.7753295898,216.368865967,125.638504028,
6770.736,-79.5796661377,216.537597656,125.392059326,
6779.437,-80.3427047729,216.559402466,125.134727478,
6788.138,-81.0597076416,216.439987183,124.923561096,
6796.838,-81.8713302612,216.694122314,124.440620422,
6805.539,-82.553894043,216.573547363,124.147125244,
6814.239,-83.2857513428,216.606994629,123.898117065,
6822.94,-83.9577636719,216.531677246,123.777290344,
6831.641,-84.6236953735,216.45262146,123.614585876,
6840.341,-85.2729187012,216.341217041,123.006828308,
6849.042,-85.9308395386,216.229446411,122.894805908,
6857.742,-86.5810394287,216.126693726,122.618881226,
6866.443,-87.3584442139,216.31703186,122.482017517,
6875.144,-88.1119003296,216.508026123,122.274452209,
6883.844,-88.7875061035,216.475708008,122.01436615,
6892.545,-89.5428771973,216.702774048,121.769233704,
6901.245,-90.3422241211,217.026947021,121.682243347,
6909.946,-91.0640029907,217.186935425,121.516441345,
6918.647,-91.7462234497,217.355239868,121.251487732,
6927.347,-92.4030914307,217.446075439,121.028846741,
6936.048,-93.1143722534,217.676040649,120.791320801,
6944.748,-93.8240661621,217.91947937,120.56439209,
6953.449,-94.5402832031,218.205749512,120.512763977,
6962.15,-95.1686325073,218.290725708,120.230918884,
6970.85,-95.8179321289,218.463623047,120.056427002,
6979.551,-96.4770202637,218.668655396,119.875816345,
6988.251,-97.1705474854,218.97328186,119.620445251,
6996.952,-97.7874450684,219.121505737,119.591445923,
7005.653,-98.3999328613,219.299697876,119.287399292,
7014.353,-99.0127410889,219.519577026,119.227645874,
7023.054,-99.568107605,219.715209961,119.058036804,
7031.754,-100.161117554,219.991195679,119.005126953,
7040.455,-100.734367371,220.194946289,118.651817322,
7049.156,-101.318122864,220.346572876,118.54699707,
7057.856,-101.873550415,220.399963379,118.198348999,
7066.557,-102.547859192,220.718338013,118.143974304,
7075.257,-103.092170715,220.724502563,117.881202698,
7083.958,-103.627029419,220.772155762,117.722816467,
7092.659,-104.260513306,220.994506836,117.432922363,
7101.359,-104.958694458,221.278274536,117.346389771,
7110.06,-105.562675476,221.387329102,117.291122437,
7118.76,-106.197181702,221.515060425,117.03086853,
7127.461,-106.907897949,221.799972534,116.836647034,
7136.162,-107.534179688,221.936065674,116.718360901,
7144.862,-108.231544495,222.155212402,116.5572052,
7153.563,-108.915596008,222.297744751,116.557556152,
7162.263,-109.610702515,222.445602417,116.394393921,
7170.964,-110.283592224,222.537353516,116.363952637,
7179.665,-111.068450928,222.87739563,116.331108093,
7188.365,-111.721687317,222.950958252,116.195098877,
7197.066,-112.410346985,223.099884033,116.093429565,
7205.766,-113.035636902,223.148193359,115.896759033,
7214.467,-113.819709778,223.478439331,115.839927673,
7223.168,-114.574546814,223.698638916,115.88318634,
7231.868,-115.202224731,223.709472656,115.644248962,
7240.569,-115.770927429,223.604049683,115.580062866,
7249.269,-116.319648743,223.474884033,115.372001648,
7257.97,-117.064727783,223.750106812,115.399536133,
7266.671,-117.756851196,223.913009644,115.262573242,
7275.371,-118.414604187,224.038925171,115.323783875,
7284.072,-119.054412842,224.151321411,115.235839844,
7292.772,-119.707801819,224.349395752,115.346260071,
7301.473,-120.254859924,224.341766357,115.259941101,
7310.174,-120.892936707,224.509780884,115.087768555,
7318.874,-121.477867126,224.538818359,114.926986694,
7327.575,-122.230102539,224.881317139,115.037414551,
7336.275,-122.926712036,225.130508423,115.072441101,
7344.976,-123.535171509,225.242401123,114.989112854,
7353.677,-124.124038696,225.331161499,114.838699341,
7362.377,-124.872810364,225.782958984,114.801239014,
7371.078,-125.511734009,226.108200073,114.62285614,
7379.778,-126.104103088,226.35774231,114.464805603,
7388.479,-126.569633484,226.454406738,114.335258484,
7397.18,-126.99684906,226.522567749,114.384132385,
7405.88,-127.486091614,226.699417114,114.295860291,
7414.581,-127.93031311,226.864196777,114.352081299,
7423.281,-128.292816162,226.916213989,114.169517517,
7431.982,-128.676483154,227.06262207,114.044487,
7440.683,-128.980957031,227.094650269,113.753646851,
7449.383,-129.27394104,227.08807373,113.816375732,
7475.485,-130.304855347,227.278167725,113.626724243,
7484.186,-130.561889648,227.442001343,113.629585266,
7492.886,-130.808410645,227.600906372,113.609603882,
7501.587,-131.007492065,227.636001587,113.540145874,
7510.287,-131.114227295,227.469116211,113.544342041,
7518.988,-131.329833984,227.548126221,113.363876343,
7527.689,-131.566467285,227.584060669,113.299125671,
7536.389,-131.856384277,227.725738525,112.981086731,
7545.09,-132.154220581,227.846191406,113.082038879,
7553.79,-132.436141968,227.944595337,113.268135071,
7562.491,-132.654403687,227.941390991,113.157012939,
7571.192,-133.028335571,228.229522705,113.421455383,
7579.892,-133.21031189,228.231033325,113.533744812,
7588.593,-133.598983765,228.548446655,113.615875244,
7597.293,-133.801712036,228.570388794,113.631973267,
7605.994,-134.065719604,228.668457031,113.717269897,
7614.695,-134.368301392,228.85345459,113.7029953,
7623.395,-134.501754761,228.812789917,113.564353943,
7632.096,-134.627487183,228.731567383,113.532730103,
7640.796,-134.797668457,228.757110596,113.554405212,
7649.497,-134.899047852,228.719558716,113.744758606,
7658.198,-135.041763306,228.799591064,113.914710999,
7666.898,-135.056991577,228.658950806,113.934669495,
7675.599,-135.112457275,228.584579468,113.937187195,
7684.299,-135.242706299,228.564453125,113.870597839,
7693.0,-135.388626099,228.587905884,113.968276978,
7701.701,-135.469589233,228.525238037,113.834091187,
7710.401,-135.513595581,228.405288696,113.877128601,
7719.102,-135.796310425,228.655105591,114.100219727,
7727.802,-136.01751709,228.794189453,113.804916382,
7736.503,-136.144424438,228.799255371,113.889282227,
7745.204,-136.290863037,228.841369629,113.844856262,
7753.904,-136.488311768,228.936676025,113.704940796,
7762.605,-136.582046509,228.835571289,113.838996887,
7771.305,-136.796432495,228.930633545,113.907516479,
7780.006,-136.989685059,228.967453003,113.582038879,
7788.707,-137.251663208,229.157165527,113.584365845,
7797.407,-137.516906738,229.373687744,113.725883484,
7806.108,-137.6355896,229.3568573,113.779533386,
7814.808,-137.852157593,229.47265625,113.789649963,
7823.509,-137.94644165,229.381454468,113.723388672,
7832.21,-138.204803467,229.56060791,113.67906189,
7840.91,-138.314239502,229.569412231,113.649497986,
7849.611,-138.393615723,229.525161743,113.550552368,
7858.311,-138.501052856,229.525787354,113.609413147,
7867.012,-138.756637573,229.721054077,113.581245422,
7875.713,-138.9009552,229.786956787,113.574073792,
7884.413,-139.090087891,229.910263062,113.533340454,
7893.114,-139.387893677,230.199035645,113.514457703,
7901.814,-139.449066162,230.141113281,113.394058228,
7910.515,-139.484573364,230.029418945,113.122261047,
7919.216,-139.562225342,230.01361084,113.175239563,
7927.916,-139.752853394,230.203079224,113.186752319,
7936.617,-139.888778687,230.33605957,113.241416931,
7945.317,-139.853210449,230.160430908,113.113441467,
7954.018,-139.934463501,230.204772949,112.984443665,
7962.719,-139.964706421,230.178344727,113.022666931,
7971.419,-139.9740448,230.161804199,112.98085022,
7980.12,-140.07170105,230.274200439,113.12575531,
7988.82,-140.287017822,230.545150757,113.169029236,
7997.521,-140.341384888,230.551330566,113.232963562,
8006.222,-140.393035889,230.570236206,113.327529907,
8014.922,-140.544326782,230.744552612,113.276199341,
8023.623,-140.729492188,230.988494873,113.390808105,
8032.323,-140.827835083,231.071777344,113.390434265,
8041.024,-140.954483032,231.222091675,113.443748474,
8049.725,-141.006607056,231.216217041,113.478134155,
8058.425,-141.111343384,231.318664551,113.595939636,
8067.126,-141.078018188,231.227661133,113.52545166,
8075.826,-141.05506897,231.160964966,113.530639648,
8084.527,-141.15965271,231.25881958,113.368560791,
8093.228,-141.233917236,231.285140991,113.405754089,
8101.928,-141.258590698,231.194290161,113.376022339,
8110.629,-141.307632446,231.199127197,113.511611938,
8119.329,-141.275741577,231.044555664,113.298469543,
8128.03,-141.387893677,231.150161743,113.26096344,
8136.731,-141.341918945,231.018218994,113.283660889,
8145.431,-141.418609619,231.072235107,113.173164368,
8154.132,-141.34942627,230.884429932,113.158966064,
8162.832,-141.410400391,230.908920288,113.159996033,
8171.533,-141.271514893,230.592437744,113.130630493,
8180.234,-141.190841675,230.346847534,113.181098938,
8188.934,-141.183319092,230.246795654,113.122467041,
8197.635,-141.126068115,230.066513062,113.2109375,
8206.335,-141.102966309,229.960296631,113.143791199,
8215.036,-141.000091553,229.68611145,113.124160767,
8223.737,-141.138931274,229.82901001,113.093269348,
8232.437,-141.091217041,229.691085815,113.094596863,
8241.138,-141.080047607,229.614440918,113.160903931,
8249.838,-141.111129761,229.581878662,113.119171143,
8258.539,-141.094650269,229.471908569,112.95148468,
8267.24,-141.105926514,229.394454956,112.797592163,
8275.94,-141.163101196,229.429199219,112.674606323,
8284.641,-141.166656494,229.388214111,112.827339172,
8293.341,-141.187484741,229.379241943,112.912605286,
8302.042,-141.078079224,229.188156128,112.967155457,
8310.743,-141.083206177,229.186965942,113.019493103,
8319.443,-141.073547363,229.168731689,112.993217468,
8328.144,-141.092224121,229.176101685,112.95110321,
8336.844,-141.050079346,229.124008179,112.888809204,
8345.545,-141.00227356,229.051559448,113.003417969,
8354.246,-140.998062134,229.077545166,113.060958862,
8362.946,-140.905029297,228.935699463,112.805114746,
8371.647,-140.913375854,228.972229004,112.76625824,
8380.347,-140.917907715,229.058792114,112.966751099,
8389.048,-140.784393311,228.885528564,112.950843811,
8397.749,-140.797714233,228.974365234,112.933906555,
8406.449,-140.827194214,229.028549194,112.875366211,
8415.15,-140.830123901,229.057632446,112.687698364,
8423.85,-140.822235107,229.086914062,112.800285339,
8432.551,-140.905914307,229.233566284,112.760131836,
8441.252,-140.874511719,229.166503906,112.77835083,
8449.952,-140.785476685,229.000045776,112.644927979,
8458.653,-140.815582275,229.027038574,112.608436584,
8467.353,-140.863739014,229.04901123,112.398498535,
8476.054,-140.82371521,228.964553833,112.562644958,
8484.755,-140.883239746,229.008422852,112.674263,
8493.455,-140.79524231,228.847122192,112.650177002,
8502.156,-140.799072266,228.783432007,112.643516541,
8510.856,-140.909011841,228.948913574,112.621711731,
8519.557,-140.838867188,228.8074646,112.55291748,
8528.258,-140.853546143,228.773880005,112.55657959,
8536.958,-140.974472046,228.912460327,112.69203949,
8545.659,-141.103729248,229.03767395,112.743812561,
8554.359,-141.079711914,228.911972046,112.665626526,
8580.461,-141.231430054,228.886581421,112.616729736,
8589.162,-141.336807251,228.913604736,112.502044678,
8597.862,-141.34664917,228.796676636,112.48828125,
8606.563,-141.361053467,228.703918457,112.609931946,
8615.264,-141.409393311,228.68371582,112.581718445,
8623.964,-141.371704102,228.531890869,112.583152771,
8632.665,-141.295410156,228.359115601,112.562797546,
8641.365,-141.280883789,228.240921021,112.444297791,
8650.066,-141.265655518,228.173553467,112.43938446,
8658.767,-141.177597046,228.005783081,112.441970825,
8667.467,-141.214828491,228.018325806,112.490196228,
8676.168,-141.059280396,227.647415161,112.437683105,
8684.868,-140.982620239,227.407318115,112.388717651,
8693.569,-140.903747559,227.143356323,112.462623596,
8702.27,-140.776702881,226.782318115,112.436096191,
8710.97,-140.695266724,226.479187012,112.393295288,
8719.671,-140.729446411,226.335144043,112.341896057,
8728.371,-140.758377075,226.173126221,112.394706726,
8737.072,-140.864395142,226.138214111,112.479095459,
8745.773,-140.893539429,225.964004517,112.430686951,
8754.473,-140.998382568,225.902297974,112.440811157,
8763.174,-141.097763062,225.83140564,112.393577576,
8771.874,-141.212188721,225.763076782,112.235153198,
8780.575,-141.417495728,225.872314453,112.33493042,
8789.276,-141.575241089,225.883041382,112.180206299,
8797.976,-141.640213013,225.780014038,111.95262146,
