Time (ms),Position Data for Clock Game(mm)
,x,y,z
1859.029,65.6087493896,150.197982788,200.360992432,
1903.511,55.8617744446,166.999649048,195.675521851,
1938.261,50.492641449,173.309997559,191.602035522,
1946.956,46.7130355835,177.447036743,188.905929565,
1955.652,43.4791297913,181.073654175,186.824447632,
1964.347,40.4499588013,184.485275269,185.015670776,
1973.043,37.6371803284,187.796432495,183.243301392,
1981.739,35.106842041,191.470092773,181.907073975,
1990.434,32.5560874939,195.270309448,180.328308105,
1999.13,30.1132335663,199.012832642,178.552581787,
2007.825,27.9210662842,202.684265137,177.074951172,
2016.521,25.7297706604,206.510635376,175.711074829,
2025.217,23.5470504761,210.243545532,174.311645508,
2033.912,21.5203056335,213.56237793,173.233520508,
2042.608,19.6167678833,216.822219849,172.555175781,
2051.303,17.6660175323,220.11781311,171.848266602,
2059.999,15.6947832108,223.381317139,171.154830933,
2068.695,13.7282600403,226.683807373,170.515426636,
2077.39,12.0279569626,229.653808594,169.816650391,
2086.086,10.4860839844,232.846481323,169.180389404,
2094.781,9.03828430176,236.155410767,168.492462158,
2103.477,7.72875165939,239.68788147,168.028945923,
2112.173,6.41341781616,242.800598145,167.256164551,
2120.868,5.06327772141,245.854217529,166.73274231,
2129.564,3.45046758652,248.448730469,165.664672852,
2138.259,2.09905290604,250.667449951,165.212875366,
2146.955,0.605998873711,252.514541626,164.679855347,
2155.651,-0.891722500324,254.163848877,164.361160278,
2164.346,-2.3356525898,255.626052856,164.293426514,
2173.042,-3.75031280518,256.747528076,164.20425415,
2181.737,-5.02631378174,257.882843018,164.091995239,
2190.433,-6.14698028564,259.132507324,164.069580078,
2199.129,-7.15215873718,260.421875,163.930252075,
2207.824,-8.0506772995,261.821136475,163.78503418,
2216.52,-8.81749534607,263.189300537,163.699737549,
2225.215,-9.57181072235,264.535827637,163.566986084,20.8111114502,227.248565674,244.045852661,
2233.911,-10.1788139343,265.430541992,163.318634033,19.6247272491,225.624908447,242.302841187,
2242.607,-10.814037323,266.114044189,162.902786255,
2251.302,-11.2687149048,266.545837402,162.618881226,
2259.998,-11.6809406281,267.241424561,162.53553772,
2268.693,-11.9907979965,267.34677124,162.242630005,
2277.389,-12.2733545303,267.397674561,161.962020874,
2286.085,-12.6712379456,267.473937988,161.317367554,
2294.78,-12.8478631973,267.545806885,161.187652588,10.5168190002,236.997665405,245.742385864,
2303.476,-13.1119709015,268.010986328,161.003875732,10.3714780807,236.618362427,245.246368408,
2312.171,-13.2361307144,267.870513916,160.653503418,10.1509189606,236.947036743,245.345962524,
2320.867,-13.2829027176,267.624664307,160.270797729,
2329.563,-13.600069046,267.724578857,159.614425659,
2338.258,-13.6260919571,267.78729248,159.337844849,
2346.954,-13.6282644272,267.791259766,158.957214355,9.19997406006,238.905929565,244.826446533,
2355.649,-13.5051965714,267.582702637,158.627548218,
2364.345,-13.3770837784,267.379852295,158.182861328,
2373.041,-13.1092042923,266.936096191,157.703659058,
2381.736,-12.8603830338,266.423431396,156.935302734,
2390.432,-12.5485343933,266.130493164,156.337509155,
2399.127,-12.1893959045,266.08807373,155.913375854,9.59629058838,237.900543213,240.901550293,
2407.823,-11.8581237793,265.791168213,155.099227905,9.64873313904,238.003631592,240.479431152,
2416.519,-11.7262048721,265.85559082,154.24559021,9.81693840027,238.195114136,240.272994995,
2425.214,-11.3695793152,265.798675537,153.586227417,9.82434082031,237.793609619,239.476272583,
2433.91,-10.9586801529,265.700408936,153.043731689,9.84117984772,238.169036865,239.248779297,
2442.605,-10.7024536133,265.717926025,152.148574829,
2451.306,-10.5523834229,265.963653564,151.420532227,
2460.007,-10.0538883209,265.619659424,150.974487305,
2468.707,-9.63081932068,265.308746338,150.513015747,
2477.408,-9.14801883698,265.091247559,150.217987061,
2486.108,-8.70632839203,264.902557373,149.832336426,
2494.809,-8.14166069031,264.220367432,149.328170776,12.3731298447,237.398330688,235.89225769,
2503.51,-7.67943429947,264.280151367,149.127120972,12.4463071823,237.600784302,235.875335693,
2512.21,-7.2306394577,264.149749756,148.6925354,
2520.911,-6.70895576477,263.948577881,148.340881348,
2529.611,-6.213347435,263.914703369,148.059463501,
2538.312,-5.87169075012,264.272003174,147.668762207,
2547.013,-5.43672800064,264.163543701,147.404327393,
2555.713,-5.07361078262,264.102264404,147.284988403,14.0180282593,238.074554443,234.842086792,
2564.414,-4.76924037933,264.107849121,146.929824829,14.1549930573,237.396881104,233.998672485,
2573.114,-4.57167100906,264.08782959,146.437255859,14.5823526382,237.133605957,233.908782959,
2581.815,-4.39903497696,264.147247314,146.152801514,
2590.516,-3.88466501236,263.780944824,146.221359253,
2599.216,-3.44154572487,263.608886719,146.174972534,
2607.917,-3.14276337624,263.498352051,145.7605896,
2616.617,-2.61392641068,263.456481934,145.77494812,16.5064735413,235.585418701,231.875289917,
2625.318,-2.12503457069,263.550964355,145.55531311,16.7082023621,235.648681641,231.824111938,
2634.019,-1.58632981777,263.58203125,145.385421753,
2642.719,-1.01438558102,263.211151123,145.080657959,
2651.42,-0.478005290031,262.932861328,144.905273438,
2660.12,-0.0362479016185,262.868347168,144.707077026,
2668.821,0.36553171277,262.609069824,144.455200195,18.4108905792,234.561355591,229.344604492,
2677.522,0.575125217438,262.677947998,144.248596191,18.4616107941,234.500259399,229.104537964,
2686.222,0.722733974457,262.562805176,143.512420654,18.6531715393,233.856948853,228.567687988,
2694.923,1.13210129738,262.688873291,143.625183105,18.6598396301,233.814407349,228.26763916,
2703.623,1.53974580765,262.49395752,143.525009155,18.8358192444,233.961029053,228.278930664,
2712.324,1.96565818787,262.549285889,143.442504883,
2721.025,2.37488126755,262.685668945,143.28742981,
2729.725,2.75679087639,263.120880127,143.127380371,
2738.426,3.13930010796,263.425170898,142.832595825,20.342628479,235.073455811,227.526748657,
2747.126,3.52651810646,263.59866333,142.551223755,20.2656650543,236.139846802,228.191543579,
2773.228,4.46612501144,263.956695557,141.580459595,20.2663784027,236.542770386,227.978927612,
2781.929,4.64849996567,264.566802979,140.939743042,20.2912025452,236.683029175,227.503692627,
2790.629,4.94381427765,264.557769775,140.392456055,20.4258270264,236.308334351,226.684753418,
2799.33,5.38797235489,264.860931396,140.282546997,
2808.031,5.7869052887,264.911682129,139.970031738,
2816.731,6.18608617783,265.138305664,139.643341064,
2825.432,6.61501932144,265.4140625,139.301498413,22.037902832,238.090209961,224.158432007,
2834.132,7.02347326279,265.543884277,138.795272827,22.146648407,238.132827759,223.992111206,
2842.833,7.47497177124,265.838806152,138.415237427,22.0756950378,238.38583374,223.817810059,
2851.534,7.93546247482,266.010986328,137.984039307,22.1754264832,238.897262573,223.928726196,
2860.234,8.38436603546,266.377075195,137.573547363,22.276260376,239.144134521,223.799636841,
2868.935,8.83763885498,266.778717041,137.234527588,22.4048919678,239.132507324,223.367141724,
2877.635,9.2407579422,266.680999756,136.650192261,22.409412384,239.525665283,223.125335693,
2886.336,9.60322475433,266.938201904,136.222717285,22.6801815033,239.839447021,223.082443237,
2895.037,9.9401140213,267.183349609,135.926422119,22.8602714539,240.034912109,222.817672729,
2903.737,10.1801538467,267.743591309,135.858093262,23.0378704071,240.182647705,222.554733276,
2912.438,10.3192853928,267.892303467,135.564208984,23.2579040527,240.304580688,222.236038208,
2921.138,10.461350441,268.048034668,135.374206543,23.3544788361,240.233291626,221.853942871,
2929.839,10.5637874603,268.365234375,135.366424561,
2938.54,10.6447143555,268.785858154,135.406600952,
2947.24,10.6888666153,269.109588623,135.360794067,
2955.941,10.7417497635,269.50177002,135.42527771,24.0559501648,241.383529663,220.918106079,
2964.641,10.7457342148,269.739105225,135.251831055,24.0275783539,241.863067627,221.320297241,
2973.342,10.8852519989,269.801208496,135.380157471,24.1546478271,242.118667603,221.383880615,
2982.043,10.9194631577,270.062408447,135.288223267,24.1105880737,242.050994873,221.087539673,
2990.743,10.9565544128,270.323364258,135.280487061,24.2272586823,242.617248535,221.561004639,
2999.444,11.0458307266,270.623840332,135.411437988,24.1811695099,242.564193726,221.479980469,
3008.144,11.0791559219,270.405303955,135.503265381,24.1661319733,242.779525757,221.651550293,
3016.845,11.0767240524,270.601898193,135.811065674,24.1600627899,242.820297241,221.639221191,
3025.546,11.0200681686,270.654296875,136.035171509,
3034.246,10.7894010544,271.18762207,136.11151123,
3042.947,10.7542276382,271.32119751,136.373596191,
3051.647,10.683262825,271.444793701,136.654464722,23.8801422119,244.183837891,222.673797607,
3060.348,10.5215244293,271.91305542,136.887176514,23.9816303253,243.910797119,222.66847229,
3069.049,10.2921562195,272.002319336,136.856781006,24.0935916901,243.979385376,222.808135986,
3077.749,10.1235742569,271.835083008,136.817245483,24.0364322662,244.281524658,222.99357605,
3086.45,10.0253076553,272.082611084,137.281845093,
3095.15,9.83521747589,272.160797119,137.50352478,
3103.851,9.67515087128,272.117492676,137.745391846,
3112.552,9.26678562164,272.154602051,137.477355957,23.2530899048,245.834335327,223.872253418,
3121.252,9.08826351166,272.149810791,137.844314575,23.2437953949,245.866470337,224.068740845,
3129.953,8.87492370605,272.037475586,138.187637329,23.2156848907,245.087692261,223.606079102,
3138.653,8.59901046753,271.9324646,138.381866455,23.1175403595,244.686981201,223.340576172,
3147.354,8.22045230865,272.10458374,138.573318481,
3156.055,7.86726570129,271.879211426,138.692749023,
3164.755,7.36237287521,271.782897949,138.324569702,
3173.456,7.05178833008,271.755371094,138.475585938,22.3352489471,246.742263794,225.963409424,
3182.156,6.72772026062,271.725982666,138.639099121,22.4241390228,246.661010742,225.956954956,
3190.857,6.49360847473,271.826629639,138.907821655,
3199.558,6.24219751358,271.965911865,139.067977905,
3208.258,6.07422971725,272.181152344,139.483383179,
3216.959,5.86468029022,272.055969238,139.58795166,
3225.659,5.65181827545,272.13104248,139.721313477,
3234.36,5.52862119675,271.899993896,139.895980835,
3243.061,5.38748884201,271.855957031,139.934753418,
3251.761,5.14002180099,272.155914307,139.715362549,21.1852264404,245.763549805,225.582214355,
3260.462,5.06078863144,272.273468018,139.870773315,21.1779117584,245.421051025,225.302093506,
3269.162,4.96637964249,272.042785645,139.874267578,21.1952800751,245.060684204,225.02015686,
3277.863,4.89866065979,272.210479736,140.066833496,21.0766487122,244.784057617,224.78086853,
3286.564,4.80033111572,272.138519287,140.12828064,20.8859024048,244.687301636,224.567321777,
3295.264,4.68243789673,272.153808594,140.069992065,20.8919258118,245.092071533,224.901046753,
3303.965,4.63247537613,272.035644531,140.107650757,20.9333610535,244.884277344,224.78465271,
3312.665,4.60042858124,272.275054932,140.305770874,20.9533557892,244.59854126,224.627639771,
3321.366,4.55346488953,272.257385254,140.153198242,20.8328266144,244.867324829,224.742721558,
3330.067,4.60657405853,272.45803833,140.309356689,20.8808689117,244.787414551,224.673629761,
3338.767,4.44351291656,272.672821045,139.891738892,21.0101509094,244.925216675,224.80241394,
3347.468,4.49315834045,273.008026123,140.126815796,20.9791355133,245.115661621,224.940505981,
3356.168,4.37546300888,273.103240967,139.686264038,20.9874324799,245.002258301,224.75793457,
3364.869,4.53492879868,273.073455811,139.979873657,20.9938201904,244.939590454,224.697250366,
3373.57,4.48245048523,273.343719482,139.872817993,20.97215271,245.178588867,224.875045776,
3382.27,4.63259506226,273.126190186,139.979751587,21.0290813446,245.392120361,225.091827393,
3390.971,4.74769878387,273.100769043,140.068893433,21.0367641449,245.632995605,225.250167847,
3399.671,4.85784053802,273.215148926,140.19972229,21.0721054077,245.494186401,225.054626465,
3408.372,5.03706598282,273.068878174,140.286636353,21.1330070496,245.777435303,225.256729126,
3417.073,5.23874425888,272.885803223,140.360488892,21.1821117401,245.821792603,225.215835571,
3425.773,5.35754537582,273.007202148,140.336608887,21.3083133698,245.962890625,225.2525177,
3434.474,5.51615762711,273.061523438,140.368408203,21.4074745178,245.984832764,225.228683472,
3443.174,5.43475961685,273.111419678,139.802322388,21.4995937347,246.063095093,225.263687134,
3451.875,5.55372238159,272.938415527,139.80632019,
3460.576,5.65228414536,272.7109375,139.846679688,
3469.276,5.53267288208,273.143890381,139.556121826,
3477.977,5.64523458481,273.068786621,139.722747803,21.493938446,246.432785034,225.036880493,
3486.677,5.70886182785,272.912597656,139.745223999,21.5536746979,246.453796387,225.213424683,
3495.378,5.80490064621,272.653320312,139.791625977,21.6443157196,246.573364258,225.490203857,
3504.079,5.64870691299,272.676208496,139.306884766,21.6896095276,246.837112427,225.682937622,
3512.779,5.74011516571,272.736572266,139.470657349,21.7238254547,246.696136475,225.589599609,
3521.48,5.87054300308,272.707763672,139.773880005,21.8057117462,246.546112061,225.507019043,
3530.18,5.95500993729,272.553405762,139.968215942,21.8165817261,246.391860962,225.378692627,
3538.881,5.81242704391,272.662689209,139.74508667,21.8591766357,246.553573608,225.656555176,
3547.582,5.87480258942,272.676940918,140.194396973,21.9016075134,246.700073242,225.821075439,
3556.282,5.77578210831,272.847625732,140.381027222,21.9441242218,246.154876709,225.617904663,
3564.983,5.64801645279,272.854125977,140.41696167,21.9150791168,246.119491577,225.801376343,
3573.683,5.70755815506,272.565429688,140.891296387,
3582.384,5.72937297821,272.412963867,141.406021118,
3591.085,5.7176527977,272.046966553,141.727935791,
3599.785,5.64602375031,272.084899902,141.992401123,
3608.486,5.68172216415,271.771697998,142.416610718,
3617.186,5.77169322968,271.341888428,142.85987854,
3625.887,5.78592777252,270.878997803,143.147460938,22.3286361694,244.080230713,228.20954895,
3634.588,5.69856119156,270.766021729,143.18560791,22.4342041016,243.233291626,227.856719971,
3643.288,5.66264295578,270.185668945,143.054153442,22.5062618256,242.279907227,227.424041748,
3651.989,5.81152915955,269.627044678,143.514190674,22.6156730652,241.226226807,226.834381104,
3660.689,5.94574117661,269.013214111,143.879211426,22.7941017151,240.882751465,227.09928894,
3669.39,5.95897293091,268.728424072,144.253219604,22.9638938904,240.007080078,226.846588135,
3678.091,5.95087099075,268.400360107,144.635116577,22.9625377655,239.593902588,227.119415283,
3686.791,5.90842247009,268.131530762,145.052368164,23.1151561737,239.199539185,227.487228394,
3695.492,6.09810400009,267.307250977,145.80255127,23.1467514038,238.681121826,227.730316162,
3704.192,6.22992324829,266.446289062,146.668716431,23.3233146667,238.015563965,227.975494385,
3712.893,6.07331562042,265.804931641,147.461151123,23.3190040588,236.927856445,227.895187378,
3721.594,5.87676239014,264.635314941,148.354431152,
3730.294,5.54579496384,263.589385986,149.553649902,
3738.995,5.36304521561,261.552185059,150.93548584,
3747.695,5.03892040253,259.533233643,152.805740356,
3756.396,4.4849357605,257.008056641,154.933776855,
3765.097,3.69412279129,253.553741455,157.068222046,
3773.797,3.01799416542,250.086242676,160.205581665,
3782.498,1.90009891987,245.950317383,163.169662476,
3791.198,1.2852615118,241.259246826,166.488006592,
3799.899,0.648659229279,236.712402344,170.582122803,
3808.6,0.488500118256,231.295089722,175.14453125,
3817.3,0.909001886845,225.040054321,179.964202881,
3826.001,1.71600496769,219.519592285,186.06111145,21.5401382446,213.602249146,224.73223877,
3834.701,2.68636584282,211.66784668,190.499465942,
3843.402,4.26088523865,204.326889038,195.934417725,
3852.103,6.55241060257,196.606491089,201.096603394,
3878.204,12.3852214813,178.272216797,213.237411499,
3886.905,19.4378261566,169.436096191,222.998703003,
3895.606,23.3572006226,158.898101807,224.369384766,
3904.306,22.7963371277,164.348007202,228.733535767,
3913.007,75.1464157104,219.337097168,209.818817139,22.7051849365,170.845062256,234.130233765,
3921.707,76.1844863892,215.64414978,211.477676392,
3930.408,77.1808700562,211.532958984,212.164215088,
3939.109,78.3015060425,208.085754395,213.881271362,
3947.809,79.4979858398,204.69190979,215.238098145,
3956.51,80.7043533325,200.794754028,216.345733643,
3965.21,82.1496200562,197.134521484,217.601379395,
3973.911,83.5332641602,192.943893433,219.145736694,
3982.612,85.368850708,189.288848877,219.175979614,
3991.312,88.2146835327,188.229919434,220.959701538,
4000.013,89.7661895752,183.294754028,220.860809326,
4008.713,91.1162948608,178.106063843,221.111740112,
4017.414,92.8928604126,173.060699463,220.964645386,
4026.115,93.7158660889,166.132858276,218.922561646,
6390.104,24.4358100891,89.2335357666,103.200569153,
6398.8,24.2064914703,89.067817688,101.941764832,
6407.495,23.8024921417,88.8387908936,100.469688416,
6416.191,22.9805660248,87.9147109985,100.488594055,
6424.886,22.6074542999,87.17162323,100.380973816,
6433.582,22.0815544128,86.7040634155,99.5424346924,
6442.278,21.434513092,86.4306106567,98.205657959,
6450.973,20.9462337494,85.6927261353,98.0144500732,
6459.669,20.2988586426,85.1259841919,97.1453018188,
6468.364,19.8899669647,84.3839111328,96.8171463013,
6477.06,20.5203990936,82.6592941284,97.1310348511,
6485.756,19.6745548248,82.4336776733,95.2951660156,
6494.451,19.5324344635,80.9607772827,95.5888442993,
6503.147,20.391336441,78.9903717041,96.2014160156,
6511.842,20.4921989441,78.6132736206,95.3609161377,
6520.538,19.4449081421,77.8038406372,94.4287948608,
7199.07,-48.7474212646,355.231994629,225.058532715,
7207.77,-51.5957794189,356.29208374,226.292068481,
7216.471,-50.1631393433,356.44354248,226.127304077,
7225.172,-50.3285522461,359.306335449,227.488861084,
7233.872,-50.1211051941,358.415222168,226.888717651,
7242.573,-48.727142334,355.540985107,224.914611816,
7338.279,-48.0129585266,353.508331299,222.634887695,
7346.98,-47.3424797058,353.903747559,222.949508667,
7355.681,-46.9014434814,356.137237549,224.228744507,
7364.381,-47.0709686279,357.022399902,224.717880249,
7373.082,-47.9012374878,357.368896484,224.265563965,
7381.782,-48.7396621704,357.432800293,223.931533813,
7390.483,-49.4295730591,358.081848145,223.423873901,
7399.184,-49.5067939758,357.111724854,223.208969116,
7407.884,-49.6534614563,358.708129883,223.23916626,
7416.585,-49.9120445251,357.603271484,223.153198242,
7425.285,-49.7069969177,359.030822754,224.324172974,
7433.986,-49.4567947388,359.163482666,224.416992188,
7442.687,-49.2967987061,357.697174072,223.788131714,
7451.387,-48.9700279236,356.745330811,223.404449463,
8886.986,43.1782073975,96.4079589844,47.2423439026,
8895.687,34.2957496643,90.8871154785,61.2328147888,
8913.088,55.9747657776,100.08921814,52.1392478943,
8921.789,57.7983779907,99.5633239746,53.0523757935,
8930.489,59.5908432007,98.5065383911,54.3852043152,
8939.19,61.796421051,97.9250946045,54.5384979248,
8947.89,64.5183181763,97.6753768921,54.3932304382,
8956.591,67.4221572876,97.0958557129,54.8636245728,
8965.292,70.1981201172,95.6872024536,56.2834739685,
8973.992,72.8028945923,94.068359375,58.0454521179,
8982.693,75.0673751831,92.5405578613,59.9520492554,
8991.393,77.2402038574,91.3327560425,61.8088722229,
9000.094,79.3218002319,90.2588272095,63.7299995422,
9008.795,76.3842697144,90.8911361694,65.2245788574,
9026.196,89.6259918213,84.0962600708,74.0019073486,
9034.896,91.1588516235,83.6052322388,75.1211013794,
9043.597,92.3714370728,82.6415481567,75.7564239502,
9052.298,93.2088851929,80.8497695923,75.9245605469,
9060.998,92.4699630737,76.9243392944,74.9099578857,
